worker_id,time_s,hr_bpm,hrv_rmssd,emg_level,skin_temp_c,ambient_temp_c,fatigue_now
1,0,86.45707561963165,51.69347248838213,0.22936093057232126,33.57537790805287,35,0.013345984925577549
1,1,84.47002384063926,51.45789180824689,0.20080354637543374,33.63035782036029,35,0.0004774647184110507
1,2,87.18567679370969,51.03505965638789,0.1797276726512152,33.5173556545678,35,0.0
1,3,87.50084707458683,50.08717822203895,0.21384206994643498,33.697980305560165,35,0.020959143435019596
1,4,83.19344721701925,48.87124666612403,0.2044469054096077,33.36790293440911,35,0.018902041931509756
1,5,84.19673073970652,48.270061386667955,0.20699685925017375,33.5684807520447,35,0.02608242140709418
1,6,86.37176060475093,52.459811053523346,0.2215064574575758,33.3979778641537,35,0.004433425472052577
1,7,85.73563611148462,51.38960854345318,0.22782074805556654,33.60585419084637,35,0.013757773160375866
1,8,86.21479826374356,48.45339154559915,0.2167100433094661,33.5612860855741,35,0.031996127065266514
1,9,84.99043410863963,49.89966353644627,0.21678639366581437,33.680135581676275,35,0.019199527218271072
1,10,87.61909696229424,49.19976981402997,0.2612708298094678,33.549970859070825,35,0.0463573339490373
1,11,87.49668790314342,47.5235785885885,0.24601107997814597,33.45959939819396,35,0.05259034703643321
1,12,86.45904604634183,50.1153027532426,0.24067092236130336,33.4508929787579,35,0.02949282153709547
1,13,88.08086181045205,48.90901467152161,0.22862411891760392,33.474982275898725,35,0.036493361686040775
1,14,87.12126401337807,47.81492666740863,0.20788513528210054,33.448927595877414,35,0.03482279087800203
1,15,85.16106130567515,46.741734891716476,0.2525477277186799,33.63471089708473,35,0.056948302849262854
1,16,87.03312617612376,46.552392999588655,0.23488588293436044,33.62756382767617,35,0.05463205010469808
1,17,85.07167609875651,48.917147744610716,0.22245661972353734,33.35034325550576,35,0.02885119375805024
1,18,87.85767545196092,49.46981005915017,0.2311371909282461,33.50383601430826,35,0.032937587081920294
1,19,86.49511113352061,47.86939837967537,0.21867634867523705,33.50624915168002,35,0.03757989865710353
1,20,86.3227064546821,50.90147885531446,0.26114658085971726,33.421870471819936,35,0.03146397404477446
1,21,85.60860568339409,49.448906916434076,0.25566074166243574,33.54382499920739,35,0.038859442748544276
1,22,88.49381200801105,50.713770621197305,0.24763264923056702,33.6460850837828,35,0.031276398470822794
1,23,86.45820577689679,49.17417841962458,0.2451442885274946,33.58918089839533,35,0.03822699719062074
1,24,86.07750826675534,47.94576472958579,0.23438662245500314,33.6347068388942,35,0.042462846610073
1,25,86.22179967426766,49.72823514227723,0.20739854712482958,33.42815321524643,35,0.018898673866413213
1,26,87.57846377833002,46.954650975963354,0.22374146206679868,33.50365077727667,35,0.04821029329458758
1,27,87.35816609654611,50.538877041273295,0.23914709320961422,33.42343523207339,35,0.0272954463315257
1,28,87.45909891739399,47.56570158697373,0.23814067235972294,33.52394300705806,35,0.04912466518817608
1,29,87.51623150451182,51.2564650530669,0.2637872124923213,33.53294509091072,35,0.03191463096398504
1,30,90.1124714013057,48.72308850751617,0.2762298748394664,33.59598380054009,35,0.06004015341374858
1,31,86.32037747542309,51.505067032619834,0.2594312156219793,33.63134918538469,35,0.026310155103545733
1,32,86.19163590639269,47.11475362282337,0.2921783387024287,33.568897716394574,35,0.07150270083104568
1,33,85.76934090762818,47.98446059854236,0.2503420456082674,33.413983013715914,35,0.04790909914726198
1,34,87.94396913386323,50.08186989369714,0.26528925746503446,33.364782728567576,35,0.0419493668472836
1,35,88.74345843908134,51.640994186853504,0.2689802564144481,33.552002003070534,35,0.033205695204476145
1,36,86.90907881351768,52.61321781662985,0.2938437265766884,33.65005211088612,35,0.032606534847458374
1,37,85.84976528455621,49.342732327361745,0.2761177416416436,33.497520812293175,35,0.04808903580702914
1,38,85.90327817646315,52.915491261573514,0.2786713782911626,33.3472606437867,35,0.022685022958541107
1,39,88.14588918173705,48.640670900349136,0.2449031376998416,33.7084755956708,35,0.04498393008180616
1,40,88.31488125680517,51.39753524472595,0.26200186581578494,33.548940455016144,35,0.03153753525022021
1,41,88.0447314024578,47.29563800608139,0.3039190454739517,33.517114151604915,35,0.0779473006735527
1,42,86.26173543906697,50.0004010137265,0.24249315472805635,33.38320288489936,35,0.030721730115273266
1,43,87.63824198460009,44.45661391828711,0.3128598530486126,33.50162162228955,35,0.10181508878293083
1,44,87.49502871371108,46.87681797669375,0.2979932897790846,33.56868841621956,35,0.07778509575439847
1,45,87.67803289509351,50.03335359616153,0.2750495734327249,33.55030207205535,35,0.04568356556808925
1,46,88.68714316692228,46.455122295598954,0.2753590204718543,33.43201128718476,35,0.07407441860107289
1,47,87.74539332316202,49.91389922157837,0.33191910599696617,33.49429347170425,35,0.06900390217317791
1,48,88.45837034460784,50.852916241624726,0.32422811612958846,33.438399329796326,35,0.06024403716344936
1,49,87.57136860423334,48.017359614563446,0.2956111845691301,33.66641615828964,35,0.06852213409537976
1,50,87.93367909803497,47.062094088651605,0.30269183458904764,33.589487397863614,35,0.07900731502848417
1,51,88.4769323387578,48.03162676829052,0.2890763727817946,33.44756651314004,35,0.06740491386288613
1,52,85.37426627021651,47.02837536163163,0.30669567955652216,33.3831530341145,35,0.07643881593488075
1,53,87.11049317546406,48.73757288396816,0.29252192622861406,33.52778150822313,35,0.06117764981431937
1,54,86.91444101856081,49.124181249776164,0.3064291395165164,33.45071826102827,35,0.06343201476820767
1,55,86.691683227635,48.28797975380638,0.3462065875952948,33.45816933362974,35,0.08486271153010401
1,56,87.26728662315998,52.228718480373644,0.31008771906899146,33.38647858664395,35,0.04244770943695369
1,57,89.95241196685159,47.42119236062605,0.29303956237452744,33.39885912754782,35,0.07601843833000343
1,58,86.44125332646013,51.62286635851063,0.28867255904030054,33.516267015256055,35,0.0371197721970021
1,59,89.22241753188722,46.737521527375776,0.3205423551472896,33.4733121552158,35,0.09063057586611432
1,60,85.27569534257628,48.9455551398831,0.3047820969101442,33.74965143860207,35,0.061299648894003925
1,61,87.32767245502134,51.14621081709614,0.32693206283965076,33.55942534326678,35,0.057190571161650175
1,62,88.1041295976575,51.022714304506636,0.2916099381374291,33.3848304818588,35,0.04557587289360436
1,63,88.76933349703891,47.89948420459953,0.33980500269151764,33.34643637569829,35,0.08879530539591945
1,64,88.98683986968929,49.83013944014269,0.30679670256413993,33.53981713886581,35,0.06189499338080609
1,65,89.14002085279989,49.54235816732845,0.3309259451855468,33.460313290527296,35,0.07376180009211977
1,66,87.45691239162734,47.60012164281452,0.32523393565120057,33.633147494950464,35,0.08304599224792741
1,67,87.31647231100315,49.89189987429614,0.3683677792455774,33.52818638384599,35,0.08273591335704157
1,68,89.32696382188574,52.36498434410475,0.3394297834685906,33.301747969030565,35,0.056485336023212485
1,69,87.78304351267757,49.56340133012526,0.3769094389622919,33.398057570158244,35,0.08932477936414335
1,70,86.18647051499312,49.732712758141346,0.3512148480012484,33.432471794399284,35,0.07524658032662615
1,71,86.43006917899477,49.924309956401416,0.3705081184462496,33.54420369383682,35,0.08181516659469569
1,72,86.78082157099757,45.638046785289724,0.3398240358715416,33.394724757015126,35,0.10216441593479762
1,73,88.93574111608065,49.460449346412574,0.35291006098980643,33.515281759395855,35,0.0826467294803763
1,74,88.43363860410585,46.48648085032295,0.3723728717803791,33.366385017878756,35,0.1114807940346791
1,75,89.28572803110166,47.3202261186044,0.368099198971681,33.50061854189784,35,0.10508145157543591
1,76,87.6391210304952,52.803883562377,0.36261986556369136,33.53700259844482,35,0.05943627718371552
1,77,88.54780953661508,47.95347678068238,0.34744130334424544,33.6461510317358,35,0.09101182063797644
1,78,89.278385590951,46.959651791411545,0.3528244701238656,33.52455754236052,35,0.1017484462228869
1,79,87.90598019041964,50.725165157802785,0.3807532390320671,33.418326507574925,35,0.08242774268505199
1,80,89.08516285633613,46.50464599431525,0.3869182249746428,33.649300508695816,35,0.11817199201564602
1,81,87.43711108840003,47.48516171162065,0.35014274541440654,33.48168219637922,35,0.0936402858245188
1,82,87.91541923015238,50.858104335972335,0.3491248205129006,33.57735667681015,35,0.06904517206794268
1,83,87.9173931590025,48.42553513061592,0.34791732423459565,33.438710422882984,35,0.0866162419993475
1,84,86.72624053161644,45.19680590974694,0.3845940123146031,33.509077825989245,35,0.1229136284318011
1,85,89.28045872117838,49.387979228645236,0.3514104995587496,33.419873206542206,35,0.08318696466001217
1,86,87.87589648969592,47.48706823590698,0.38835206812043493,33.53222599553492,35,0.1093742682178967
1,87,88.62874117809153,51.33970297306049,0.38491380686242027,33.580382809516365,35,0.08074244253675995
1,88,89.36111998835887,47.02762610473174,0.3650981631126844,33.450520072447546,35,0.10620310585357104
1,89,89.33979676404492,50.32245194745185,0.40927718627702536,33.44489920806133,35,0.0990682468911294
1,90,89.69807766345919,51.75139606473143,0.35075482183797546,33.535681821846396,35,0.06611724736032831
1,91,88.58227177323587,46.47811355237686,0.4151906519951712,33.41749840300202,35,0.12860192491118658
1,92,88.12505253193378,47.77357395848361,0.39037771728490994,33.34820563126645,35,0.10847168223970846
1,93,88.67042268364041,48.917250548288905,0.34453067286682615,33.535319641840125,35,0.08293183344983356
1,94,86.28899834906295,46.40530849489165,0.4198375927164323,33.489230282338006,35,0.12703218739055205
1,95,86.67933129136536,48.640589893415665,0.4094442500843998,33.487114060855944,35,0.10704439324172214
1,96,86.8959505814684,47.630159424988015,0.38343576633173926,33.55210704145812,35,0.1047027626113703
1,97,87.41412975859777,47.569864856813275,0.37470558869517206,33.56607503524304,35,0.10261251194492069
1,98,89.53966134008515,48.137876785416225,0.3646186651232323,33.48389981084128,35,0.09808679029473541
1,99,87.61178141695991,48.16252943115713,0.44630892323620786,33.387733059471,35,0.12665715359459365
1,100,88.43275616894091,48.32776153815208,0.38153236251676315,33.43614131968288,35,0.10141780664444414
1,101,90.9788424466791,46.782347309086425,0.3767282287599815,33.55849639304654,35,0.11536128456423966
1,102,88.52560404340787,46.84965655130049,0.409358382487003,33.513640266344495,35,0.1234601996564412
1,103,90.19627335270063,47.70282482235034,0.37324213066477774,33.44502406342425,35,0.10582399250863785
1,104,87.71957347998519,47.830484717528414,0.3883690320311089,33.421561351416486,35,0.10656579151902482
1,105,88.84184366319856,47.02230132010676,0.4298993838832094,33.56178228102559,35,0.13078362476724956
1,106,87.75496691763414,48.52787928417204,0.42128421189638765,33.477834759443795,35,0.11437194217761792
1,107,88.70145038614915,44.23047650264961,0.4062726008052124,33.57527167787721,35,0.14197638206304766
1,108,90.50046220618609,46.3790674821821,0.4163661334586276,33.587933579743854,35,0.13308793252013992
1,109,86.67901936521147,47.26014434759429,0.40915058939599996,33.468716024971485,35,0.11716692465222665
1,110,89.95163546531879,46.08776962593879,0.4187600438126193,33.59496474848361,35,0.1352465506258391
1,111,89.68660340349841,51.038396029617786,0.406763772348807,33.51384097544619,35,0.0933667600098567
1,112,88.46877506645481,47.7977236934499,0.41239521360945147,33.526775823758406,35,0.11752304629363747
1,113,87.22091321841732,48.09353935645181,0.41378643724909137,33.28112509048881,35,0.11373473469391819
1,114,89.5281942615708,46.75353858406908,0.41348278296288493,33.40290787016765,35,0.1275113725773846
1,115,88.6557609364043,47.668442159254084,0.45087821992832966,33.40833056361225,35,0.13390552915897824
1,116,89.82901431703206,45.24949307139453,0.4474023478402611,33.468134527759645,35,0.15249432716873362
1,117,89.54277821828516,47.32036592780985,0.4153527346321811,33.511435100765375,35,0.12406628860218147
1,118,91.94266833698138,45.76598314280849,0.41211212414914866,33.515525032504094,35,0.13843914268230154
1,119,89.21096655879046,47.065192830487675,0.43485446713738773,33.52857469467912,35,0.13304329075095375
1,120,88.0647537610672,42.480166867395006,0.4831057519657909,33.43150554087338,35,0.18401950135804224
1,121,89.89891345243447,45.323993583112944,0.42144589592606907,33.569136296377486,35,0.14187488150023295
1,122,89.98999502595764,50.48785280902867,0.4407755122059192,33.68092884435516,35,0.11131848371060392
1,123,91.72878136286066,49.200795498215086,0.4477744082743533,33.46466751125509,35,0.1265933092936341
1,124,90.97266686887187,50.15807867183047,0.445827156519097,33.43363318325664,35,0.1174323476791911
1,125,90.28530658872427,50.275442539341846,0.4408358025156102,33.431466817608914,35,0.11342404272119828
1,126,91.97495433682934,48.825974848328954,0.4751015994439711,33.50854678265305,35,0.14052021630658004
1,127,88.02685541851572,46.554262629241734,0.4630891724588691,33.4474236890387,35,0.14588260830019448
1,128,88.88037270087538,45.36549810746875,0.4729161064749015,33.32696715869168,35,0.16001989386582302
1,129,88.48013608789172,49.7134892108994,0.4697875989933266,33.35432481275483,35,0.12585796572275004
1,130,89.31528529526635,47.52913594877478,0.47787896643611977,33.602019013946745,35,0.14666656891817836
1,131,87.86497077866554,52.36804563276382,0.49368811665948126,33.628179404012336,35,0.11449477489872299
1,132,90.9127264202216,46.62980404797849,0.4906208793357667,33.6599889587958,35,0.16107721236137343
1,133,89.65666595435184,51.28579170956096,0.5124960791919183,33.52263044387794,35,0.13297594050868078
1,134,87.81379055824601,47.00641641860849,0.49234682562814386,33.40090944920462,35,0.1536460512933561
1,135,88.52663137818868,49.972097194517396,0.4566110644694499,33.456198385084285,35,0.11884848031404714
1,136,90.55027077117529,50.67338347446491,0.4889462408361166,33.35086123650201,35,0.1298083897421157
1,137,91.36718985184157,45.214100143638575,0.4882087035796919,33.347010801045805,35,0.17140985032916836
1,138,93.13509633753768,46.270003843418266,0.5144058981046438,33.52552627105627,35,0.17689214955200422
1,139,94.54079369901099,45.15404154860294,0.45865682966647425,33.553901154940704,35,0.16570082614861648
1,140,90.821614149914,44.74011102348356,0.4911590216278588,33.69583735557262,35,0.175147372402874
1,141,88.74569281995221,48.5141337010499,0.4683785931046609,33.4916906423814,35,0.1346557053861144
1,142,87.06193057890304,46.76674325950195,0.49425090208200273,33.36421651891944,35,0.15488130351387966
1,143,90.69156719351577,47.24473264638027,0.48170506670800567,33.4878079616245,35,0.1526380806483233
1,144,89.10058835703451,48.232478269946554,0.4975893760838178,33.47175408008866,35,0.14881734649040462
1,145,89.72696410973046,43.38522633257017,0.4617932362783715,33.450876832320155,35,0.17179375494216265
1,146,89.46185480141028,49.65353200791411,0.507864529631118,33.534374956747484,35,0.1429300548254726
1,147,90.19881367037542,46.36181167332017,0.498121190303722,33.378552747089394,35,0.1647838675980087
1,148,92.03897034618146,48.104802612475716,0.49904385763543807,33.5130721432826,35,0.1553750233019006
1,149,90.70557285116801,48.261425678457094,0.5370045659969466,33.565156326571945,35,0.1668242965938932
1,150,90.26204774444197,49.74159312152768,0.4923503320346435,33.641973777023196,35,0.137560773613861
1,151,88.97651937076128,46.77028522443393,0.5088453084954396,33.53103758490359,35,0.16386662234554977
1,152,88.04797558294347,42.71272508191414,0.5060054139807851,33.60431204505193,35,0.19125304708508678
1,153,89.86053813639,47.05425522690712,0.5099607832048146,33.45561039596939,35,0.16371455816788982
1,154,90.53932617377252,47.32141371632321,0.5524360780928556,33.46957097259208,35,0.1795671172469848
1,155,93.30189487036984,44.83147828171976,0.511276141848275,33.634784704121564,35,0.1866190246674075
1,156,90.87541178220934,47.17498130886588,0.5006544040102348,33.36284155750362,35,0.16090753456659893
1,157,92.18410926653458,46.13796313054742,0.5514180559089444,33.45968596977544,35,0.19076599505699993
1,158,89.99105660219126,44.15449210143498,0.5098462246912208,33.6128446306726,35,0.18540006470193618
1,159,88.99258435037446,48.162969790018565,0.4858964370558189,33.47888882852475,35,0.14455864367245153
1,160,89.35232485665144,45.672549698204406,0.505183125871423,33.471439796812874,35,0.17121550386704973
1,161,89.74216090319636,45.967241570525864,0.4970682501191429,33.47346678834335,35,0.16651377901828923
1,162,94.05270459865275,45.83484230542583,0.488000690673711,33.511715177484724,35,0.1713305789574172
1,163,89.65791998116342,49.2109571949283,0.5187396999126374,33.608608384191925,35,0.15081681674677921
1,164,92.17773380560452,46.638167676453214,0.5265956806945313,33.59242315183232,35,0.17730349081000124
1,165,89.59560923286946,46.858199641091645,0.5536105583025781,33.50114572414989,35,0.18184489063215298
1,166,92.37735951931137,45.79872769122721,0.5445880322412413,33.60923885674908,35,0.19093296719607575
1,167,91.5874264491588,47.58573364450981,0.5456766861625734,33.53417929633297,35,0.176751678212715
1,168,90.80504315351287,49.33863609690135,0.5181357998960456,33.58591201678208,35,0.1516004101111518
1,169,91.00885621079684,47.91572163497301,0.5556986652392824,33.3971630525907,35,0.17724509395614538
1,170,90.11781845685591,47.973733922669716,0.5678246567279748,33.67385527334331,35,0.18004545365383187
1,171,91.79910830222312,47.79246041176869,0.5498914178309232,33.52202130541454,35,0.1772356316182272
1,172,90.47752477948883,43.799514713377675,0.5524503507259585,33.22516906526822,35,0.2055874959913126
1,173,89.35159135434913,44.78776233660172,0.5207061540060005,33.66595271734693,35,0.18386854670141078
1,174,89.30309363852056,46.11002521280175,0.5690887161521065,33.50050549312107,35,0.19296664410747835
1,175,91.50888187658317,45.04827191501355,0.5856166109752284,33.46045060388486,35,0.21111118910023052
1,176,93.64863688461566,44.350925950488,0.5584590479809368,33.43943169348128,35,0.20929511974214804
1,177,91.54998742036015,42.71564851825885,0.5421128544326503,33.543950186853436,35,0.211408649313046
1,178,91.16204251083518,43.74694157373172,0.5527601028802432,33.41116110810627,35,0.20727306628199835
1,179,91.79873920940382,45.906948885314804,0.5495915856997483,33.442309353732924,35,0.19110155305359472
1,180,93.35900261256025,46.26114726636223,0.5527910069367942,33.44471218961883,35,0.19240638517784892
1,181,91.7590737520458,44.79389244773885,0.5749596612738812,33.47077529562978,35,0.2092445747689529
1,182,90.84360915374938,46.517850425366454,0.5695892822334069,33.44847917502681,35,0.19278068723037609
1,183,93.14943306508982,45.47233271818325,0.5860787321194274,33.58528141316549,35,0.2109613117990595
1,184,92.16313465769241,48.5011471747477,0.5754180508955645,33.52710623047977,35,0.1826220176273689
1,185,93.85363398799399,45.97674847195032,0.5527182405204364,33.539303673834425,35,0.19533551489528445
1,186,91.85485165583286,47.67266176280343,0.5619861595230122,33.56106022135173,35,0.18296641638464306
1,187,89.77329645241925,46.66642752458938,0.5627431785442429,33.49069057298343,35,0.1871561326255583
1,188,89.5877612011315,43.43585792151189,0.5722705984676311,33.397969067087615,35,0.21453708820557996
1,189,94.14639189834688,46.03868364852565,0.6138942738282919,33.680517247937686,35,0.2193872633229158
1,190,94.28549858117495,43.72875180134264,0.6190979918329527,33.59275346546294,35,0.23880010844331764
1,191,91.4607211800761,45.963758323566154,0.5987320240089318,33.66128270139356,35,0.20938595421355477
1,192,91.18521901829602,44.66973836553862,0.5863752759366725,33.603453842096144,35,0.21366124463306066
1,193,93.98216643836331,46.90392606696962,0.5587669556099122,33.453962859613455,35,0.19105326020563096
1,194,90.15943147693476,43.435291325067595,0.5924001661146018,33.26520220616711,35,0.22342181148133194
1,195,90.50790947156625,46.12940365055888,0.5741998540712591,33.37709035744722,35,0.19689532808400523
1,196,92.84499019203356,47.22483116512639,0.6246104379313184,33.563652204670824,35,0.21256345617873673
1,197,91.31809231571062,47.87519113861799,0.5618778862041903,33.48982520806635,35,0.18050117712522498
1,198,91.9323171999199,44.51166448423155,0.6036896866666024,33.458015014108426,35,0.222910214972189
1,199,91.72483565221323,46.05550194441435,0.5805152124469927,33.25044464983487,35,0.2020092170058017
1,200,92.5063618231984,46.36829394582315,0.5998096962903307,33.49868727357557,35,0.20860207282212256
1,201,94.14122279197058,49.07425255908554,0.6153213638062213,33.39182214497477,35,0.19742464140496283
1,202,92.19587736035263,42.99733987849973,0.6244393737756421,33.427561741923405,35,0.2427368873501342
1,203,93.05590818991529,44.1177949098579,0.6047861959813685,33.585010409689716,35,0.22818893876419405
1,204,89.04474184845347,51.52892498547216,0.6232243310036307,33.3970858045916,35,0.17357920114756073
1,205,92.07692239710482,45.35380543208805,0.5967505980277581,33.406631069462684,35,0.21418906315883615
1,206,90.9151545945607,42.09801238019345,0.6169107676954645,33.51855803274101,35,0.2442555511495362
1,207,90.38178040936455,44.69489971330367,0.6340441482887574,33.58723620916133,35,0.2308045514875784
1,208,90.92277144960687,40.30225355707128,0.6226419895627998,33.45972941045932,35,0.259836432796678
1,209,91.76881483894877,46.301841424912304,0.6074131260725338,33.64672154050229,35,0.21081390466506994
1,210,93.67385381353402,47.419569520556436,0.6144191526487314,33.37213308220748,35,0.20854117477608367
1,211,90.34041092339065,43.956675247662496,0.6423131212509587,33.354594439939156,35,0.23945398132215726
1,212,92.40594723889163,44.81855215549698,0.6021631076614369,33.346071400171475,35,0.2208473847926103
1,213,91.66374584999963,47.587308310737825,0.607113697319851,33.33478162355895,35,0.20098228714928157
1,214,91.92849035845705,42.219569070307855,0.6400317751962347,33.53365489651601,35,0.2541660839159621
1,215,93.95413673795692,43.056857575600915,0.6212171281091641,33.40222106806108,35,0.24404664583408608
1,216,93.2871731555059,45.22376963656872,0.6029388360730062,33.35898076361508,35,0.2196579413861957
1,217,94.51609716116413,44.15533032506636,0.6610163733408382,33.53797966951356,35,0.2524829997777575
1,218,92.30824148112515,45.052266205052824,0.6140079942424018,33.58239492471907,35,0.22359502683757637
1,219,91.52608608249393,43.09249936118695,0.6340113997336072,33.60508583969154,35,0.24463889975723363
1,220,92.26421177467924,46.02862697184302,0.627609587126258,33.587528446466976,35,0.22161619680847003
1,221,92.99374518690682,45.28153382964002,0.6360463302891955,33.40818965339574,35,0.2317195015787848
1,222,92.92486003768056,46.65838098846607,0.6263076108469732,33.52760909644497,35,0.21756769340147225
1,223,91.06341789164995,45.94079900096058,0.6602855847538692,33.54968715773924,35,0.23303190461250825
1,224,92.85573467244181,45.93338014499204,0.6502164704861383,33.45251167549109,35,0.23220942373024328
1,225,93.09234249520836,42.607385290939774,0.6696730719042179,33.516475210390475,35,0.264918955794835
1,226,96.55621105630088,46.46518310328974,0.6398166357691656,33.37483817700383,35,0.2305308007657128
1,227,95.62526691692251,44.798267196391116,0.6966604353989843,33.43723998239058,35,0.26360576050089163
1,228,91.56013497416177,45.10680338470076,0.6179070242899212,33.53717873055881,35,0.22343758812017508
1,229,92.43892495767624,47.516528752781625,0.6262973018415542,33.65075426543472,35,0.21036556658568306
1,230,90.7048369972445,43.96112888696621,0.6950616969543286,33.61514396133219,35,0.2607475625598303
1,231,92.04393947905477,48.08236865691801,0.6714808333489277,33.56608584777343,35,0.22322402778519695
1,232,93.4334075053855,48.248950598746184,0.6708277216611216,33.507970003877475,35,0.22411544751979018
1,233,94.79878043133235,46.84556887472875,0.6746255061463603,33.49247694870247,35,0.2383562344013765
1,234,91.92637424338459,43.358758378465154,0.679424145403009,33.35524000461123,35,0.261173268722226
1,235,92.0687803398983,40.927413508746135,0.6759953544086791,33.41644934661105,35,0.278104365432616
1,236,89.85906645539201,47.43766982851988,0.6526819101674979,33.41971451454063,35,0.2168802761058885
1,237,92.86600111918264,45.48277012266216,0.6903638181014559,33.557475931554066,35,0.2513251678684154
1,238,91.54637838221066,43.749605058357076,0.6892135642307647,33.59449477714858,35,0.26146464116702395
1,239,92.3758408589509,47.5671246875112,0.7065686229347966,33.57365734195265,35,0.24138515172568253
1,240,91.88470883274861,43.476882238244386,0.7152848215380232,33.61826664380698,35,0.2742994906990978
1,241,93.08860616862117,44.33168948353811,0.6886095215928651,33.507225755152646,35,0.2595556858736358
1,242,90.62340741296507,46.20978072863399,0.6594490196473562,33.40170698174061,35,0.22995393077205478
1,243,91.08943213191353,42.91279433677025,0.7214504586240427,33.495006710365075,35,0.2795388322309158
1,244,96.51387066804244,44.90103818078586,0.6676370012999411,33.42751629095675,35,0.2529772293303865
1,245,91.41886612808895,47.278274367826725,0.6967592838734475,33.56578599917561,35,0.23803630940096468
1,246,91.73482163231803,45.50222148724226,0.6868653214715829,33.464091259690264,35,0.24786768962568878
1,247,96.16537029248197,47.55485267364736,0.6853874929963041,33.49014683827655,35,0.23966330542840938
1,248,97.7976007538606,47.307204716011995,0.7112860024306303,33.56936222296711,35,0.2544636901051361
1,249,91.71265005676199,45.03547666884324,0.7028891919853593,33.425890571040846,35,0.2575800352953043
1,250,92.94762656481795,40.326517247285224,0.7102648298253625,33.59639765858223,35,0.2975177138084116
1,251,94.04233332641077,42.768455409569384,0.6856862741967326,33.36524036480404,35,0.27163827296790866
1,252,96.15304646660839,46.48666822476898,0.7005185006925068,33.53065509679388,35,0.2535028138707384
1,253,92.10971438235765,41.83949715942942,0.6906093004031859,33.49091010026774,35,0.2771452931392368
1,254,93.25208323108684,44.2666148228261,0.7040185682404506,33.5827341796424,35,0.2663661081190746
1,255,94.81600636409262,45.576961227378064,0.7076247555026518,33.3625626038136,35,0.26074541669937695
1,256,94.33214911169993,47.819141391523026,0.7488860834640959,33.34692088772088,35,0.25947927795711534
1,257,93.14576589315485,43.70996060709117,0.7088122297106252,33.57500443858611,35,0.2721935813276855
1,258,93.53926555322593,43.553024581833746,0.673488033509387,33.46090778584508,35,0.26016922960821903
1,259,91.70765628744502,44.715108467008996,0.7459018307464157,33.49091978962318,35,0.2768281473504945
1,260,93.442739384038,45.501825939620204,0.7289851874805204,33.434025083909084,35,0.267330287529183
1,261,93.43041876498657,44.471506345207814,0.7193797913089321,33.591281037982725,35,0.271180995614237
1,262,94.20825483443939,46.85853669777162,0.7152556926627781,33.529921621041005,35,0.2531927846171594
1,263,93.05700917177148,43.14171233394306,0.7070614868788623,33.5240664088057,35,0.275568766742348
1,264,94.62730778381771,44.960321866758086,0.7667609619417298,33.383037953182516,35,0.2882035910256575
1,265,95.46907372672975,45.59042542049404,0.7310368977732007,33.55015055532044,35,0.2709539601853766
1,266,94.2131439915027,43.87953438018829,0.6972449771303705,33.40077870812425,35,0.2682270306134029
1,267,94.53763461259881,46.33941987311993,0.7405548006657048,33.43414469723187,35,0.26753667071491427
1,268,94.1197330213668,44.9379170824847,0.7601234340406968,33.36346523352149,35,0.28489422120982877
1,269,94.07012658963711,46.197691426304544,0.7411286933670699,33.48434585254156,35,0.2680111807590958
1,270,93.01766294968573,44.98820821609767,0.7219681305560938,33.60644732600673,35,0.26765663701559195
1,271,94.60474139250995,45.332809142974455,0.7221785142795069,33.522669498916315,35,0.2679055749587012
1,272,94.01407010237976,43.29521648630129,0.7256536214456153,33.45581790935035,35,0.28336844488573404
1,273,97.32975246339589,43.278456589617555,0.776433159940939,33.51091463181012,35,0.3091086062037216
1,274,96.58003235371287,46.96879295985755,0.7465667188952635,33.51036139721342,35,0.268731364719214
1,275,94.82876982883475,45.77102088904066,0.7164255117064274,33.50660686839265,35,0.26278194953107636
1,276,93.13541418545785,42.43406966755519,0.7596826785168893,33.51773344302598,35,0.30160315723914366
1,277,92.64138279202487,44.82172684930966,0.756820735711471,33.396000564605494,35,0.28192412610865863
1,278,96.1267144296333,39.692447892929145,0.7470220906623334,33.51065383600302,35,0.3220988302219063
1,279,94.76412383772072,43.27211967260117,0.7375918648782238,33.32447516306996,35,0.28951148917319713
1,280,95.12021510508742,46.32205535323981,0.7387221020045425,33.5575623608404,35,0.26794544710217
1,281,91.81312101953871,44.12970882257768,0.7837326763093267,33.389725080808965,35,0.29619773940194866
1,282,95.85115772233726,44.59582533933206,0.768950257116102,33.61775978301589,35,0.2938653005465053
1,283,95.17163050732154,38.30723750695958,0.7755728732932357,33.25547637363382,35,0.3419392748422238
1,284,92.85435397337828,43.535492763727696,0.7728951761916024,33.66744249425267,35,0.2981375216239146
1,285,93.84271278882507,44.97654444765442,0.7765537740982364,33.33607793232221,35,0.2905807899722511
1,286,94.97557580653478,45.21057975079668,0.7626321067314352,33.38000653708629,35,0.2853244625613306
1,287,94.68870019753436,46.18471142266873,0.7698834129103845,33.5299057037941,35,0.2804534201846218
1,288,94.20174322129466,43.81948449645314,0.7992982361085009,33.56187149844246,35,0.3087043610157686
1,289,94.51476759790106,43.8886883747517,0.8062918033563823,33.4716614573484,35,0.3114726735701432
1,290,94.32203393268968,41.53576514118028,0.755558160244805,33.58926060522579,35,0.3086821894603592
1,291,94.95884376815371,43.77095692165361,0.7778348233378444,33.420344574724396,35,0.30193939033414763
1,292,96.96723795948974,41.6368498752044,0.8007857071798733,33.46003080532179,35,0.3302194100220568
1,293,90.94001233860304,40.444259760389166,0.8236415946443146,33.469792205751766,35,0.3376964901618255
1,294,94.46472460323547,41.94964125977884,0.823639191626615,33.446160414182174,35,0.3325762251034543
1,295,95.11476863205867,47.117369815607944,0.77408484370107,33.30658214256088,35,0.27591587168060216
1,296,95.32399098453064,43.53887759697344,0.8175009223641165,33.49753329334915,35,0.31985418715126884
1,297,94.35212812801807,44.49975472604673,0.7951727260421404,33.488499284629725,35,0.30229787362653243
1,298,92.30491732628212,43.01300749760389,0.8168883327775148,33.607818276371034,35,0.31833565030546235
1,299,95.46199322557116,40.4388979610962,0.8137655736164258,33.37140555842961,35,0.34161646619966507
1,300,97.59102532124628,45.872226249859416,0.7747207191487048,33.43605926759303,35,0.2896475373432392
1,301,92.7292078926258,39.63560372028882,0.8129994791325436,33.620349122552355,35,0.34258629298312776
1,302,96.35574202054728,42.85041464641668,0.8241139318233859,33.52932888612843,35,0.32932527890687197
1,303,94.59721216531567,43.83077023829988,0.8055968948994434,33.55493796861564,35,0.3117709211781912
1,304,95.02801348125674,44.38097928685971,0.8030736714538677,33.54534336233395,35,0.30743885538362203
1,305,93.57065223394409,42.44706079094226,0.7785667217645382,33.54578716474346,35,0.3096645033680225
1,306,94.67831574146619,40.20407703389005,0.8256723503310187,33.68210499948477,35,0.34668678707423783
1,307,97.16006689204843,42.257813415329124,0.8181749673562783,33.50915406579803,35,0.33276920317049186
1,308,96.11398286298156,42.34248402476068,0.7975563217057984,33.39886567231573,35,0.3222550490158987
1,309,97.86846740811491,42.27381300968984,0.8114832000624721,33.56387974862279,35,0.33123936042905466
1,310,97.06611783346654,45.740117180415204,0.8230900649825555,33.44334483257729,35,0.30870991132430864
1,311,95.98863001839436,41.35279444372172,0.8108272842189467,33.48900630235817,35,0.33458853092296875
1,312,97.9759017892517,44.361958548876316,0.8240535425501979,33.53701810017557,35,0.32086985484421665
1,313,96.04848973810745,44.056594074435836,0.7910013470559311,33.417864568478116,35,0.3068571725802851
1,314,96.66198226519559,45.64091015494334,0.8549884339370392,33.44897052521802,35,0.32127126013822455
1,315,95.00514356969794,43.43373625652614,0.8303181856993258,33.54758485710704,35,0.3251173222563168
1,316,95.5798187237888,45.26226193439512,0.8100129298701939,33.44513550287909,35,0.3045724880172957
1,317,94.4638642650496,43.3155597238118,0.7848058230322464,33.597338531599036,35,0.3072037496114367
1,318,97.02437590189227,44.5087850531696,0.856582698820668,33.40138424021374,35,0.33091512344436597
1,319,93.8025445653277,40.61411782550552,0.849161831054473,33.40104756235884,35,0.35136213191751015
1,320,96.77352551362648,38.323443847417785,0.8442137142693811,33.69060558657553,35,0.3715052331783147
1,321,95.34402341374225,44.335093707131705,0.8592729600252922,33.34697735584071,35,0.33037699902104695
1,322,97.41687064020097,44.42236625207846,0.8612179679259343,33.49732834710017,35,0.3340484161459702
1,323,96.81630348309689,44.491004666303766,0.8498887614010707,33.68514838475629,35,0.3280630254887853
1,324,98.4509692364702,42.47013497049064,0.8429157156548438,33.49714085521007,35,0.3431183245467482
1,325,96.84616203670797,46.47944450442075,0.841657168027695,33.6346770669064,35,0.31013608115082975
1,326,93.42193961652013,42.56024436852595,0.8604188404781041,33.5652474864405,35,0.3406934209540976
1,327,95.7095702406527,44.30175803934474,0.8819406274975871,33.49927981157652,35,0.3401473109483535
1,328,94.08198921110778,44.62927245000815,0.8539419365736807,33.48693547385371,35,0.3239383265927371
1,329,95.09258023645059,46.85748031949822,0.8875295481183345,33.288068258585724,35,0.3223274968658627
1,330,98.16684264991508,42.76594076042033,0.8674630494690483,33.46808883401146,35,0.3500708666482629
1,331,96.88630071634655,42.07361418754169,0.8696138193703333,33.52322185058312,35,0.3538533208163061
1,332,94.91160435713188,40.36370923116935,0.9121021893464796,33.52316629096926,35,0.3798229789784287
1,333,94.46942395033939,46.44473401332495,0.8990535643243688,33.74658587571539,35,0.32884254207897273
1,334,96.06917313931439,44.16282181409708,0.9015721848877644,33.52809580661495,35,0.349499090192646
1,335,94.2251597759283,44.2061222117886,0.854047726832663,33.563014532079386,35,0.3273637792271343
1,336,95.07328958390512,49.51340848264784,0.915843650043126,33.61649631674099,35,0.3137083212655716
1,337,96.57801420732686,43.9100894823726,0.872355664117601,33.55405013115278,35,0.3407800625440704
1,338,97.87296805416004,40.63535718979994,0.8714501764049299,33.49139509332633,35,0.3669334327539148
1,339,97.08314220833667,42.82819285001405,0.8348150317317353,33.49188126494606,35,0.3349374523840209
1,340,92.76306573710285,41.250435182302695,0.8865258164910765,33.46493455177637,35,0.35952361126854293
1,341,96.68655009354539,42.38826321083445,0.8603329208379473,33.54442110291366,35,0.3475347046677126
1,342,96.36805035984887,42.354820794490784,0.8921650765709399,33.48296792790201,35,0.3597291959087456
1,343,96.91083542805903,41.9659512178659,0.8627686973352463,33.56249363905316,35,0.3520074881227096
1,344,98.7443145224768,40.3334349892892,0.9239539967558962,33.39909126896703,35,0.3912727202298308
1,345,93.25514258479288,46.28500326734459,0.9010314792575347,33.51468484584086,35,0.3287207185245047
1,346,95.49334486221333,43.677696088876786,0.9375974315149916,33.65520673214073,35,0.3662478063229653
1,347,97.29635948419003,42.609055930599524,0.8735395193701498,33.47753765026552,35,0.3521261266770446
1,348,94.06760840081908,44.55527565903149,0.9269835848941597,33.68430016269668,35,0.3531281759649197
1,349,98.68392357208026,43.96213454969878,0.8619457516593436,33.51636714473289,35,0.3399206839199511
1,350,97.05253491905098,43.5513814654841,0.904161509529486,33.4943491807854,35,0.35673680965994253
1,351,97.7998759787651,44.34999614553365,0.8893675376011612,33.51166185023039,35,0.34628958955557
1,352,95.70358450771731,43.22786948751732,0.8950408692949928,33.46885767558362,35,0.35324300772632933
1,353,97.81064553494932,44.28044291398318,0.8956700716418233,33.30194439288936,35,0.3492973887689224
1,354,98.22270733398356,44.42622460175555,0.8897056762929734,33.58801748582231,35,0.34658217510107436
1,355,96.99931703020576,43.22543747006561,0.8848062338669861,33.71927131639471,35,0.35146683750507124
1,356,97.03160133904805,42.43921101300777,0.9031514638613706,33.548042927003266,35,0.3645531113125193
1,357,97.11551485892258,45.920795602907816,0.9163205679457374,33.554132096135646,35,0.34404356659246627
1,358,95.44498210289092,41.884196920453135,0.9392738871325202,33.4817407314442,35,0.3801245910015226
1,359,96.54870697963946,43.60262720085469,0.923907007932421,33.61577890988306,35,0.36324182749242395
1,360,96.57121620132146,43.62781682147813,0.9433308040258876,33.49607283815402,35,0.3707166166956606
1,361,97.40509079653025,41.56088429547273,0.892436462560858,33.52672200981969,35,0.3675028086285565
1,362,98.35973637036544,41.14435522937701,0.915340611885825,33.34347835325358,35,0.38121837523876045
1,363,95.30219587703239,42.0322959582603,0.9402200983827285,33.44706581297555,35,0.3791526282221806
1,364,96.73248645452064,41.73556629364878,0.9348638151158271,33.536735314818124,35,0.3817045059277827
1,365,99.17218332148846,39.783738876722275,0.9127764977068163,33.5907211734584,35,0.39169683246535597
1,366,95.86461765678116,41.37700983496145,0.950681377843318,33.59349397421295,35,0.38908294295668755
1,367,95.77662497406452,43.19244596926912,0.9233745363609503,33.342081908468224,35,0.3647507574155962
1,368,97.34345928774678,45.1718871682972,0.9204527287721255,33.35222202247519,35,0.35161064360748767
1,369,98.33657778572797,43.728782670347265,0.9477389552099361,33.55841371010552,35,0.37472575202019875
1,370,97.11713908334099,37.40093100325952,0.9401233873066847,33.42531916119952,35,0.41657699986334124
1,371,99.12344088565548,43.862607429514654,0.9315417532994278,33.58945926060418,35,0.3687261435094325
1,372,98.44519097384979,41.44369642820857,0.9328626294950578,33.336983179091796,35,0.3860214693138308
1,373,98.45273010033509,43.44616014937552,0.924604064003866,33.49015900562666,35,0.3679416466146629
1,374,98.05117475198614,42.49172948157874,0.9400850350788227,33.496576318275686,35,0.3804072141062206
1,375,100.74147965051912,42.11462474782635,0.9720001887097487,33.54804670970032,35,0.40034382586843076
1,376,96.97225746670094,42.27552854407571,0.9568910092597632,33.39688400038536,35,0.38675576416441404
1,377,94.30471656190024,42.41515138346044,0.9731718816155469,33.30332359386746,35,0.3875343904556784
1,378,99.74638154227571,45.12880994418049,0.966321370753494,33.51712727615457,35,0.37405310592440894
1,379,96.68345085356476,42.38067962582983,0.9457550758605636,33.55264302725455,35,0.3811101554607685
1,380,97.56182066651455,44.5710722663624,0.9270171745043151,33.6007454962633,35,0.35901748937376593
1,381,99.3943260272908,44.259811731691315,0.9434629127059241,33.46414483466158,35,0.370923374165622
1,382,95.05661068841161,43.69409109516731,0.9505752837780496,33.57756816410154,35,0.3704703702007429
1,383,95.61252917884079,38.766762359740646,0.9510283425941668,33.54857737748884,35,0.40814608488884374
1,384,95.11808309432172,44.55326531232321,0.9876203985371944,33.632240507771435,35,0.37874220638722
1,385,96.35879556496187,41.38419741172882,0.989411769336994,33.49446120839558,35,0.40507726407530487
1,386,98.23945490902548,43.71145456214955,1.0,33.32701006972059,35,0.3951978955608963
1,387,98.39628176421915,40.31493433351917,0.9587255765761523,33.49323403263808,35,0.40445933563340947
1,388,98.05441126899284,39.86985191339349,1.0,33.50884507484627,35,0.4233724251898185
1,389,95.55085117416145,46.1727774736624,1.0,33.55181942423985,35,0.372331558375079
1,390,94.23484484505104,40.28603386632378,0.9753547248392227,33.34673176336594,35,0.4040621903550695
1,391,97.81153037808558,44.472213278103496,0.9914711079388047,33.468795518519215,35,0.3854743941604852
1,392,97.0523359495425,42.39684064287304,1.0,33.58681035715646,35,0.40291180742096805
1,393,98.47907865757492,41.299759883279656,0.9848215075467548,33.489591454727886,35,0.40753874892819936
1,394,98.8729304393319,42.03034223133958,0.9852721644557071,33.46942656178679,35,0.40297265715019787
1,395,98.05736214808802,39.49781100693738,0.977453251577651,33.69063263977835,35,0.4172881639789361
1,396,99.02019962806378,42.052491240781535,0.9447992296267393,33.39299958131684,35,0.38717709586773286
1,397,98.2538170611726,39.89451937220808,0.9954094323297695,33.623315470998435,35,0.4217298960593605
1,398,98.7350970584022,41.249112411372025,0.9818026134509314,33.60212497358742,35,0.40716872263027015
1,399,96.91299010569517,43.87059912793915,0.9764930275276634,33.4774833538383,35,0.3825169378349494
1,400,97.73058287925281,42.50838135311531,1.0,33.49671094469177,35,0.4032478785601364
1,401,98.32516414498544,39.01565900223896,0.972973755183578,33.49635412670478,35,0.4195654541527792
1,402,99.29079271312614,43.66297625382774,1.0,33.518194775634356,35,0.39736070292754566
1,403,97.49938824166314,41.92580047618171,1.0,33.44054586425622,35,0.4071721453128139
1,404,98.90175088359817,40.83562946318133,0.999996135766055,33.45718517735713,35,0.4176614115535123
1,405,97.75124181212693,43.39335260781786,1.0,33.46447754691022,35,0.396719768903467
1,406,98.00368674900781,41.54558632604599,0.9881955781169152,33.46767022994011,35,0.4062243173042732
1,407,99.4542785630361,39.52867732018857,1.0,33.46892437694479,35,0.42830386511277774
1,408,95.25040944341876,45.53561942289921,1.0,33.275917521096396,35,0.3765418333363274
1,409,96.32529150788785,41.78542511421802,1.0,33.509764908792945,35,0.40619944750245335
1,410,96.07672190383576,41.63722959103556,1.0,33.44725322198461,35,0.40687221774847593
1,411,94.82957582022755,40.96978965653882,1.0,33.31331889133853,35,0.40968329185564256
1,412,97.34260333976724,44.11993147891518,0.9936188345015813,33.464994898508905,35,0.38812573813030116
1,413,99.51415084959162,40.69024298371592,1.0,33.46190425219926,35,0.41979160361724766
1,414,97.99267390042614,38.63004028237679,1.0,33.62752445270825,35,0.43246181257894967
1,415,98.74668512291278,40.342644676208046,1.0,33.44607700415706,35,0.4210532664000557
1,416,100.11382624506619,44.33354920090959,1.0,33.56677901798735,35,0.3937989524516863
1,417,100.50152919840154,43.32426432291423,1.0,33.638281200338575,35,0.4019494800369923
1,418,98.43629309791078,41.12996869468028,1.0,33.43719312909784,35,0.41468155438208193
1,419,100.60037883435409,44.366510283280945,1.0,33.495250279013824,35,0.39438902810259446
1,420,98.73818998765115,43.09588445764377,1.0,33.67286917749097,35,0.4006188115497392
1,421,97.37390266425881,41.04682127273078,1.0,33.52289761551492,35,0.41347601472302903
1,422,97.7683994717019,41.22818028979784,1.0,33.53737498420689,35,0.4128075766516127
1,423,96.46919523115247,42.19863546389087,1.0,33.45927460760317,35,0.40338162507714537
1,424,97.38779921939953,39.856226100672366,1.0,33.56870508304323,35,0.42233010730384773
1,425,98.21297496788836,41.509010131018705,1.0,33.49603573863144,35,0.41148729103209675
1,426,99.9853775290679,42.097026729226585,1.0,33.31678970621201,35,0.4101661963457834
1,427,101.39115474674898,38.08606752278292,1.0,33.46447674660172,35,0.4423253718588962
1,428,96.76672772693445,41.0613593548642,1.0,33.38168212097802,35,0.4123267612024796
1,429,99.45924120238988,40.81388762926863,1.0,33.511224096427256,35,0.4187803902133472
1,430,97.3391840912637,43.456136039920644,1.0,33.408316090294115,35,0.3955473612770053
1,431,99.6420456326948,37.691006012377926,1.0,33.54781284656925,35,0.44225533444805426
1,432,98.7633700239684,40.59698796059258,1.0,33.504476342093376,35,0.41919550300651226
1,433,96.2436412612287,40.37649070527083,1.0,33.37519909964212,35,0.41650900886581427
1,434,100.41244548735273,43.240141927843204,1.0,33.45074618843863,35,0.4024205916819412
1,435,98.1424989307869,41.21290686127021,1.0,33.56205627016311,35,0.4135625118461739
1,436,98.27914964243966,44.87218929130474,1.0,33.6147993035814,35,0.3866571882017645
1,437,97.50537138306547,42.58442676381277,1.0,33.409757876872604,35,0.4022975906709236
1,438,98.15857508496866,40.41955401162097,1.0,33.390255950505896,35,0.419474125785116
1,439,99.81183566104238,41.699317393117916,1.0,33.695098494030105,35,0.4128182173106704
1,440,98.91613348859539,40.491862381261086,1.0,33.4990232053505,35,0.4202372058452469
1,441,99.72299300342372,42.89879218098084,1.0,33.5091468935322,35,0.4037697196018651
1,442,99.80288278089327,38.49560457341797,1.0,33.42606089448984,35,0.43656375724960644
1,443,101.27099248329225,39.492608046857335,1.0,33.521522022854036,35,0.4316874153992245
1,444,98.80582077370343,42.03137983710984,1.0,33.67150956765402,35,0.4086298967257772
1,445,97.1347132747314,43.551512897447246,1.0,33.52543652688569,35,0.39448927284511187
1,446,100.98083362485796,36.6760628077216,1.0,33.606496324913934,35,0.45207913351127693
1,447,98.91276774185411,43.80894243198083,1.0,33.50289838565363,35,0.39562972906057775
1,448,101.11188866686607,40.759729743143986,1.0,33.3974196809376,35,0.42201669030472583
1,449,100.0450656697737,37.25225007612567,1.0,33.4316763330707,35,0.44620070637342424
1,450,99.30329370469498,34.996544316221325,1.0,33.38821978246952,35,0.46165825156976026
1,451,100.05316384106945,37.92122786838345,1.0,33.52177865835867,35,0.44125300569776466
1,452,102.48651884018945,40.9205902883092,1.0,33.622388879365,35,0.4231814120681502
1,453,102.70547079358063,40.80820392438223,1.0,33.51610109421508,35,0.42439049259030087
1,454,99.72407170269918,42.18640086941862,1.0,33.46922181813697,35,0.4090551444411013
1,455,99.89028588997562,39.801025644878074,1.0,33.42103602477126,35,0.42703178797873176
1,456,101.29436023619958,38.66391890710766,1.0,33.535544586284516,35,0.4378736136928021
1,457,98.44150845084897,40.03382722467821,1.0,33.37618679472064,35,0.4228202245376212
1,458,100.23960555892738,40.90722057382316,1.0,33.386589892173696,35,0.4194266547168405
1,459,99.73120572806921,41.28154558991056,1.0,33.59001632676406,35,0.41577839805442485
1,460,100.27086231718633,39.22167060145519,1.0,33.47222649376594,35,0.43198144236678016
1,461,98.57994679107588,42.58289340067072,1.0,33.47025458069833,35,0.4041520798952147
1,462,97.47564876003655,39.51720645655193,1.0,33.48309339836872,35,0.4249951856797531
1,463,96.78052484601307,39.0005652753502,1.0,33.5725871066746,35,0.4276346654903593
1,464,98.24392383051558,39.63521698106342,1.0,33.516550267302435,35,0.42543768899918316
1,465,99.261987072591,42.84968035140522,1.0,33.425691855833406,35,0.4033432465379987
1,466,99.54021262002686,40.41440709411868,1.0,33.42929077830515,35,0.4218820899640679
1,467,102.91584674364428,39.270972993860454,1.0,33.4804889189153,35,0.4361524722243643
1,468,101.69899005486094,42.49221550089709,1.0,33.53022197426937,35,0.41017440598690946
1,469,98.62686332548755,44.905497079897486,1.0,33.496449005650206,35,0.38700655530367756
1,470,100.62156267867643,41.019365268617896,1.0,33.48755098138269,35,0.4192500486304143
1,471,99.51938264547451,43.04768492173086,1.0,33.504628355906014,35,0.4023161971329882
1,472,99.73345424293986,42.63215590114958,1.0,33.49637755949058,35,0.4057652173316284
1,473,100.46798847412308,39.32872049668333,1.0,33.421961709743606,35,0.4315255998192469
1,474,101.14875667546309,40.57326836095246,1.0,33.610705091233875,35,0.42346284990986793
1,475,99.74111227417397,37.934910740592024,1.0,33.45176885448082,35,0.44061629197714
1,476,101.87577729910154,40.070115467276736,1.0,33.51292205506841,35,0.42844156044535053
1,477,98.5970926607864,39.207619261748555,1.0,33.29396647539616,35,0.4292147990355817
1,478,100.3495085935434,39.63422808564873,1.0,33.47848257119417,35,0.42905653215405803
1,479,104.26651058989376,38.92020993723933,1.0,33.390041083658694,35,0.4410706326778709
1,480,100.73461961393792,39.825806383608864,1.0,33.40209782303007,35,0.42829620245425837
1,481,102.57982175990927,41.44446537252983,1.0,33.74221859469668,35,0.4194560345658922
1,482,100.5972802672598,40.121016179120005,1.0,33.52495259006309,35,0.4258711623292031
1,483,101.36116564299469,36.611253604489235,1.0,33.62260221780489,35,0.45321214954952915
1,484,100.43482520841096,38.82775887020303,1.0,33.58553035833208,35,0.43518418747415055
1,485,100.29438862825369,37.26120129488349,1.0,33.598324288199805,35,0.4465619580004864
1,486,99.41077640491187,40.76812045196354,1.0,33.48009283384069,35,0.41903670343398763
1,487,101.25545203843633,41.26663472810837,1.0,33.66064020119115,35,0.41850338147126787
1,488,99.36269421622134,40.75309644370833,1.0,33.58466872985765,35,0.41906566082152996
1,489,101.66837785447015,38.645191213401226,1.0,33.50413349518023,35,0.43865402767493034
1,490,102.32793050666886,40.693707858262435,1.0,33.52632896244576,35,0.4245921138054027
1,491,101.27979711085585,39.23977148846225,1.0,33.48632675835375,35,0.4335777236549471
1,492,100.33062689966647,37.88354910049949,1.0,33.505223918486635,35,0.4420083628005342
1,493,101.47094836896304,41.62385983941786,1.0,33.49563992649133,35,0.4162235793244494
1,494,100.35699041668038,41.75605550744754,1.0,33.53815336312365,35,0.4133324611591061
1,495,102.25332068819772,41.99779096216702,1.0,33.673997380141046,35,0.4147921824731819
1,496,98.13289087367731,38.863302799935084,1.0,33.379478588304124,35,0.43097228116467
1,497,100.40658894782203,42.41872462538616,1.0,33.61423547635088,35,0.40850273148036587
1,498,97.953782007314,39.052835497343864,1.0,33.46317655162888,35,0.4292593704286242
1,499,98.7274087546592,41.32700264307702,1.0,33.62696631482648,35,0.4137195406098664
1,500,103.04579334472086,38.97817467646665,1.0,33.46665546369859,35,0.4385469471287158
1,501,102.37277747295752,39.532035672508464,1.0,33.54127536765402,35,0.43328478029418255
1,502,99.98077965007282,35.11764428522162,1.0,33.48411557512046,35,0.4619221195520265
1,503,98.83624481593866,39.336173571166164,1.0,33.326940787662174,35,0.42867154843123007
1,504,96.67320674323753,40.102179933570056,1.0,33.6738976876294,35,0.4192802753636494
1,505,100.33475673810105,39.07990076527232,1.0,33.405724638647804,35,0.4331424951401992
1,506,104.8106225183711,43.39237613617028,1.0,33.50838828611563,35,0.408835293899801
1,507,101.86232640719547,37.535067829349444,1.0,33.39475782138249,35,0.4472201132067978
1,508,100.40064157092576,38.71283752579215,1.0,33.366299834851255,35,0.4359778897719449
1,509,101.96762031425045,38.01025478002829,1.0,33.47950601603109,35,0.4438764067525644
1,510,98.95856247050833,38.67244604200906,1.0,33.44064887379297,35,0.43380399944798725
1,511,100.88401495595355,41.84282612588141,1.0,33.383118497869354,35,0.41359286666086126
1,512,101.5092162095236,42.716063588653924,1.0,33.49645673852728,35,0.40818869654005024
1,513,101.26084902226843,38.33841477816212,1.0,33.35180932769022,35,0.4402302933544634
1,514,102.60620918253512,38.273984914553594,1.0,33.51254737984145,35,0.44301571673961204
1,515,101.96696783935408,37.38574270281217,1.0,33.48726731810025,35,0.44850709057575394
1,516,102.482489027162,42.292570773038605,1.0,33.25195939654987,35,0.4129989671019343
1,517,100.47744157665386,41.9020088138326,1.0,33.44768900969502,35,0.4124565713509279
1,518,102.88672311261581,39.42803640002243,1.0,33.54684100102268,35,0.4349376310382493
1,519,104.01340542143598,36.827801607386235,1.0,33.393645411504345,35,0.4561552175252027
1,520,100.14477572052287,36.986674869087494,1.0,33.55117921944358,35,0.4483414144500922
1,521,100.29845651642816,39.92125890076918,1.0,33.543267920991354,35,0.42684015319486823
1,522,103.66367650448035,40.658675836892996,1.0,33.39822785730478,35,0.427143012700017
1,523,101.4029840199574,35.4077103899577,1.0,33.4987717696694,35,0.46221016518941577
1,524,103.82573208809984,38.87738017892423,1.0,33.582499108334765,35,0.44063226171568604
1,525,101.08619643216173,42.73659177911477,1.0,33.41235777695395,35,0.40731088012652167
1,526,103.96256836440607,39.04498158673943,1.0,33.47941894424187,35,0.43962391880856133
1,527,102.00722872520818,42.43927618158125,1.0,33.61502391179811,35,0.41109573210937933
1,528,102.22734323498405,40.73809225791136,1.0,33.414236793524076,35,0.4240904013903235
1,529,104.21707703250486,37.251440798329284,1.0,33.54591582858021,35,0.4533625619370866
1,530,101.35734428383375,38.81465741329629,1.0,33.39208088917077,35,0.4368636657540717
1,531,100.51831685611256,39.12261152291059,1.0,33.4839038096805,35,0.43314056651610844
1,532,101.28715368795746,37.45497686381299,1.0,33.54467267145739,35,0.44682758290849267
1,533,102.66850092596471,37.40026395437812,1.0,33.25954732100633,35,0.4496026640091733
1,534,99.67136139172922,42.33353718423712,1.0,33.446567691888134,35,0.407873473278831
1,535,103.00620635397668,37.34527876061409,1.0,33.542933192718635,35,0.45058970523763947
1,536,101.27184302357338,41.43687215281736,1.0,33.52258441091984,35,0.4172688997571476
1,537,103.83171899110035,38.387031043269964,1.0,33.44776216153629,35,0.4442792905304864
1,538,98.54860954264929,39.188721340233656,1.0,33.389541799441886,35,0.4292718003016994
1,539,100.99015133734375,40.34368883647714,1.0,33.56284648821943,35,0.4248935259528869
1,540,99.67029777314885,38.00288265419064,1.0,33.467759326247815,35,0.43999070503861276
1,541,100.99065580045408,40.31580862698907,1.0,33.5545347201629,35,0.42510116965597666
1,542,102.63149885166341,35.06714060090323,1.0,33.53802231355175,35,0.4668432149314134
1,543,102.02116006182536,40.01941477682927,1.0,33.45525817144315,35,0.4290669521707422
1,544,101.93993364657797,34.182939750856725,1.0,33.607256174299465,35,0.47221486916953337
1,545,102.1112226929299,38.646306546603086,1.0,33.44057223899638,35,0.439405325150684
1,546,102.68508236092991,40.788485970636984,1.0,33.61904539741519,35,0.42450176390477495
1,547,100.89719593708533,40.304590612116755,1.0,33.63212925305476,35,0.4250240672285499
1,548,103.50027446134857,36.44317904207612,1.0,33.605011467449025,35,0.4581277133677032
1,549,103.46399895557822,36.68067120781296,1.0,33.48194388466337,35,0.4563040913026318
1,550,103.07755690648415,37.62265591935473,1.0,33.7547079144368,35,0.44865486987106784
1,551,103.36480016412689,39.352431724716276,1.0,33.51518444590892,35,0.43631836632026355
1,552,103.004627001213,34.8961336199126,1.0,33.524105647884646,35,0.4687515092368526
1,553,105.6426099540966,38.91355284830288,1.0,33.49779386547619,35,0.4434802982105911
1,554,102.48935874342123,39.54285874760013,1.0,33.387023352294364,35,0.4334044698071589
1,555,102.18937517249815,38.33392563825803,1.0,33.62950732373848,35,0.44185620024319344
1,556,101.54970862946394,39.9306419361061,1.0,33.442759657033605,35,0.4289167157535197
1,557,101.16160599413325,39.307448316652405,1.0,33.59196110260373,35,0.43287306467596
1,558,100.87329231859839,37.75669148120221,1.0,33.61595531083186,35,0.44388000676792627
1,559,101.43680403015362,34.94762127948102,1.0,33.56033213805493,35,0.46568050471540634
1,560,102.6939794275219,39.06682616314164,1.0,33.43080307241017,35,0.4372860150091728
1,561,103.33144269274656,36.873849269540045,1.0,33.46589217444878,35,0.45464399132854294
1,562,102.93671308782824,37.60331475027691,1.0,33.23229238193187,35,0.44855674105443355
1,563,101.74169708385543,39.698248435926175,1.0,33.48835323436334,35,0.4309696022526985
1,564,104.27027684602994,41.5546667668687,1.0,33.58027101877,35,0.4215381831422878
1,565,104.05911900845142,38.623879753115986,1.0,33.47624949209181,35,0.44291269825967267
1,566,102.74052753886698,39.78812967289174,1.0,33.44099197077427,35,0.43201618102317163
1,567,102.03062578300292,35.77104131769421,1.0,33.47022530758905,35,0.4605919919627117
1,568,103.86264188124468,39.13104716199007,1.0,33.6215365970319,35,0.4388142040586128
1,569,103.35196038122915,38.500188124645675,1.0,33.494563431110656,35,0.4426171570499847
1,570,100.92780911087742,41.05845516125237,1.0,33.68579161764086,35,0.41948540692459635
1,571,103.02802961602339,37.499083047942484,1.0,33.44292664951153,35,0.4494864202252924
1,572,103.55305371811157,38.07672476567526,1.0,33.52172317851313,35,0.44610276328248855
1,573,101.84045782026837,40.65762893426559,1.0,33.4566598074373,35,0.42402358401686446
1,574,103.50476508925617,38.3359324152107,1.0,33.7074486413758,35,0.44409747957221324
1,575,101.06776627211332,36.28231723742546,1.0,33.517970531130935,35,0.45514852362194025
1,576,105.28427915001826,43.58326654658025,1.0,33.712807613720116,35,0.40823193988501716
1,577,105.18192497758915,36.302814473326535,1.0,33.457987244509766,35,0.4620531265550914
1,578,102.96122399854556,38.31059983690095,1.0,33.652757917585504,35,0.44335307884355324
1,579,103.91518150675861,39.11337631205123,1.0,33.51180033722735,35,0.4390353792166367
1,580,99.78511705130019,38.93523501806223,1.0,33.58366555945456,35,0.43327268937103763
1,581,101.69547850960201,38.000512591987196,1.0,33.378028902209095,35,0.4434818824956744
1,582,103.01933161977182,37.99047925894738,1.0,33.53484139492093,35,0.4458269755133511
1,583,101.8818004678597,37.870136267424094,1.0,33.39308795620093,35,0.4447684215841887
1,584,104.59159472394599,36.088132282817256,1.0,33.5257096400705,35,0.4626328173220273
1,585,106.54594479612199,42.60043842884546,1.0,33.34816099469619,35,0.4176852711852507
1,586,101.81507792085604,37.840018164573245,1.0,33.490591698042856,35,0.4448773549321093
1,587,102.35380489387221,39.45386198564619,1.0,33.60956120371267,35,0.43383202724684156
1,588,103.9931725524649,37.570694284636794,1.0,33.55475538789942,35,0.4506107206558712
1,589,106.08667422274944,37.51047265528903,1.0,33.376604995040914,35,0.4546481487553793
1,590,101.86643853119014,37.2891126746607,1.0,33.31016136171629,35,0.44905133572535844
1,591,104.10355418346042,35.080308424021496,1.0,33.549694458046076,35,0.46927042966424143
1,592,106.49194827621966,37.838757719758455,1.0,33.65811987953584,35,0.45290849316159704
1,593,101.31236127773109,37.32598469136114,1.0,33.40360539631298,35,0.4478275120721955
1,594,101.89839618973124,40.46304901836955,1.0,33.709740407817634,35,0.42556609612746316
1,595,103.21459009030873,35.70659976483097,1.0,33.4993506711831,35,0.4631006751209646
1,596,103.09911738071688,36.925705644890286,1.0,33.304130646632565,35,0.4538609039966777
1,597,105.12890193163047,36.26311906649184,1.0,33.34391196432865,35,0.4622565890998995
1,598,104.30248957973126,40.925060788023615,1.0,33.57699491493714,35,0.42626301733663235
1,599,101.3075569105368,36.281183110290655,1.0,33.5129568040835,35,0.45556822509921113
1,600,104.77311560435122,39.124599689452275,1.0,33.648222096579325,35,0.4404236716560471
1,601,103.16369166896652,39.920322946811964,1.0,33.38018752333018,35,0.4317615596032604
1,602,105.97167082541186,37.667754177169186,1.0,33.51184947981638,35,0.4532843884988536
1,603,103.14861869534462,35.18637799811906,1.0,33.50067610613883,35,0.46684583631468585
1,604,103.16507707534664,35.19169228247262,1.0,33.48569854769428,35,0.4668346514865329
1,605,104.9616974162068,39.619528129592155,1.0,33.4617392771353,35,0.4370764047995781
1,606,105.3243897235054,35.35881196240028,1.0,33.46373006244615,35,0.46929884233621944
1,607,104.88214904590431,38.64405322211982,1.0,33.51746458242804,35,0.4441747431734301
1,608,101.71160402392279,38.0686982196412,1.0,33.53025810278382,35,0.44300383043069164
1,609,105.07705165989238,38.57426496862205,1.0,33.525257285010326,35,0.4450266378262756
1,610,102.7485379224884,38.74316961569177,1.0,33.620598750890714,35,0.4397800493366639
1,611,104.68291416738239,35.912658431164196,1.0,33.37987214877113,35,0.46409088134276955
1,612,102.22439834690141,35.808943641970515,1.0,33.318831646549526,35,0.4606432423598784
1,613,105.0594832213146,39.16985426820081,1.0,33.60169650543879,35,0.4405792122414904
1,614,103.21010164353895,36.46131077887121,1.0,33.4056474959091,35,0.4574955303982746
1,615,102.52604802460922,32.199703015989705,1.0,33.462052418138484,35,0.4879291970989386
1,616,105.5507302047236,38.97751059576773,1.0,33.438790036011724,35,0.44284835182410415
1,617,104.87246678251512,35.58747742386246,1.0,33.43664876779082,35,0.4668277646397965
1,618,103.61903479791064,38.57427175581051,1.0,33.35417359617751,35,0.44252579014303156
1,619,106.74676827353159,40.40564369863394,1.0,33.44304724122653,35,0.4343078032000565
1,620,103.93902136764538,37.633524914523896,1.0,33.56493311122795,35,0.45005184594434183
1,621,104.6781615109564,39.57153166332706,1.0,33.499606856039,35,0.4369460568672148
1,622,105.0633701715179,37.867595361072404,1.0,33.55045071285069,35,0.45024430990493036
1,623,103.76050109880708,40.714858656282296,1.0,33.45039180025552,35,0.42689239699964343
1,624,105.4267044400999,35.39578578248578,1.0,33.590284599078196,35,0.46920011021927
1,625,103.94982147925292,37.48357003916702,1.0,33.44916381246565,35,0.451182536883298
1,626,104.16254251667569,38.82632321008294,1.0,33.289144269947414,35,0.44158863347035304
1,627,106.85396395970501,37.07917648597991,1.0,33.53166237929263,35,0.45916299110958886
1,628,103.27912092123135,39.74443799330534,1.0,33.57673847690287,35,0.43326402588966906
1,629,101.25082950360577,36.555920920978444,1.0,33.444076098758075,35,0.45343328500328084
1,630,107.31640549251784,41.53874230325778,1.0,33.61992062674084,35,0.42688102381906223
1,631,108.75399192891051,41.62439500854448,1.0,33.414930781229515,35,0.4287115205461954
1,632,104.352096101826,37.924143992454596,1.0,33.56707268128673,35,0.4486049264857359
1,633,102.08474293906971,38.44520236070924,1.0,33.674477594215716,35,0.440851431289624
1,634,104.55427403570609,39.703342871249276,1.0,33.503673098437154,35,0.4357559636329629
1,635,104.62066557523899,34.92560520206526,1.0,33.4773516913977,35,0.4713047650226793
1,636,104.79511423846661,34.65599997084442,1.0,33.48943283245259,35,0.47360355449580915
1,637,103.43991793711723,39.772837827715264,1.0,33.66282953869518,35,0.43332919334917486
1,638,106.00934171371472,37.787976945746,1.0,33.540278257379114,35,0.45245734861125597
1,639,105.95676106292913,36.76698950804042,1.0,33.71442026772187,35,0.4599394937773992
1,640,102.95839157027105,37.22224660576232,1.0,33.5279251387944,35,0.45142018257260624
1,641,106.27879509754234,32.40791705527186,1.0,33.43462033400962,35,0.4928216706337309
1,642,108.33902747291883,36.778875371085995,1.0,33.44164930647868,35,0.4639374146920299
1,643,105.54794049865558,35.633906521613554,1.0,33.5061607265493,35,0.4676419908020568
1,644,104.81401225689723,38.95614326723016,1.0,33.29586773840303,35,0.4417432042782494
1,645,105.13699517838872,39.09006155676801,1.0,33.452501016327936,35,0.441303957700741
1,646,106.30288515045284,38.23336046825982,1.0,33.45472021659502,35,0.4496575709642955
1,647,102.81399259173917,37.850917297598286,1.0,33.52397897554189,35,0.446509862725661
1,648,105.68658605446595,34.04530650255946,1.0,33.69418182204014,35,0.47966192594981794
1,649,104.88430407580579,38.20128615999374,1.0,33.50548164884092,35,0.447462298778496
1,650,108.27173751943407,38.258795891046766,1.0,33.307734091287365,35,0.45284590950355735
1,651,105.26874089929257,39.47038530753746,1.0,33.40860923501231,35,0.43870919102043054
1,652,108.06183141667928,41.1964196248604,1.0,33.52622878618709,35,0.4306984778162083
1,653,103.93438895332699,33.55487865285678,1.0,33.50929947596787,35,0.48029389312929205
1,654,106.5008887502042,36.143046348763576,1.0,33.66244555223126,35,0.4655003676048862
1,655,106.12910039568685,35.41546672568471,1.0,33.59600772983714,35,0.4702588958949681
1,656,104.37642912820283,37.22501437677015,1.0,33.59301154737777,35,0.4538318795707458
1,657,105.97609417195542,36.88680371643608,1.0,33.47828669078475,35,0.4590840310029471
1,658,107.55877825524739,36.37183585383971,1.0,33.60991210365509,35,0.4656180072903568
1,659,105.2843124435701,38.87520872280235,1.0,33.41040768738027,35,0.44315013055100905
1,660,103.26205602624535,34.59717157763843,1.0,33.596829430929375,35,0.47141035693402006
1,661,105.80365576028383,34.69775706521479,1.0,33.47175810968427,35,0.47502371084653516
1,662,104.50636535781123,34.71154945780391,1.0,33.35520065940395,35,0.4726962985873833
1,663,105.37648859200418,36.019344825148025,1.0,33.55932367006149,35,0.46448924515773876
1,664,105.79761834547232,34.262819568176305,1.0,33.63975436186144,35,0.47823914539443935
1,665,103.39152167597673,36.60285702240146,1.0,33.45933981286841,35,0.45675690043724426
1,666,103.55651249101899,36.34901961073827,1.0,33.656276175024345,35,0.4589225229758051
1,667,106.73310025328828,35.08696977200184,1.0,33.334405908567845,35,0.47373123433758246
1,668,105.25592195574548,38.38753250811239,1.0,33.38032067632236,35,0.4467183709187755
1,669,102.22288348726914,36.500998943426524,1.0,33.48532739582479,35,0.4555078949889307
1,670,107.2772660549122,38.72529472806361,1.0,33.462923611407234,35,0.44768031725051183
1,671,106.53855463291136,36.18990029759114,1.0,33.43328666139408,35,0.4652174718041897
1,672,105.08918776394528,36.511610223537296,1.0,33.513367771881825,35,0.460345493084758
1,673,104.21475468341264,35.414435190636574,1.0,33.44714095421696,35,0.46698305173049154
1,674,107.47371184447151,36.50590691892903,1.0,33.46410253361972,35,0.46447773950198645
1,675,106.77402593384065,37.924462612264094,1.0,33.52784250703504,35,0.452756668768221
1,676,109.85390342402611,35.657331535459406,1.0,33.43324631175286,35,0.474853862854031
1,677,106.9402828980874,37.49682392506933,1.0,33.489398183868104,35,0.4562134905427481
1,678,106.92155471189302,34.81450607790852,1.0,33.43544609536404,35,0.4760752469058838
1,679,106.11960810483716,37.93810113104442,1.0,33.379437958324,35,0.4515330557875799
1,680,107.62516380080119,35.24018834537615,1.0,33.57637021746737,35,0.4741249335852945
1,681,107.36762780187223,38.08335974645809,1.0,33.670779444084204,35,0.4525963291079299
1,682,108.3375875128478,36.48195308486733,1.0,33.60645719950739,35,0.4661371208872739
1,683,105.70801562204407,39.38190746678213,1.0,33.53317160818613,35,0.4401188484476481
1,684,105.86688879058406,34.011864547491584,1.0,33.43584715572641,35,0.4802192101501689
1,685,105.83134524363203,33.347646453376264,1.0,33.47130812758173,35,0.4850845352560562
1,686,107.76620258176848,35.04756550804887,1.0,33.60570212604673,35,0.475795464895402
1,687,108.8575616604451,33.49077810393137,1.0,33.27185132329766,35,0.48921355491829643
1,688,105.95173926027606,33.474530211143446,1.0,33.46367397756062,35,0.4843499800750091
1,689,106.03283940831037,37.46310152091975,1.0,33.57341159197443,35,0.454907147325648
1,690,107.1711158358047,36.191642413174684,1.0,33.38617196178155,35,0.46628952303499027
1,691,106.36135774998066,35.22063804659148,1.0,33.542338828424555,35,0.4721022457398461
1,692,108.18808047970982,35.386074805389136,1.0,33.53769892707657,35,0.47400845848363643
1,693,103.41233406407142,34.94552467134732,1.0,33.35456675697375,35,0.4690844929352316
1,694,105.57994242962465,39.420738335638084,1.0,33.508697811014294,35,0.43961118078427586
1,695,105.67637549905783,34.62898858471393,1.0,33.438255473199845,35,0.4753154325994355
1,696,103.39946598142078,33.435732203833396,1.0,33.541609867588356,35,0.4802600612040113
1,697,105.46454233344679,37.652101234972655,1.0,33.566978868589125,35,0.45253065211726107
1,698,105.56726582623111,35.60848875330436,1.0,33.53989389337732,35,0.46786365301465194
1,699,106.66834301822175,40.09754737763576,1.0,33.50725923242431,35,0.43645833803818385
1,700,108.66944883749039,34.94758872241173,1.0,33.52888712724226,35,0.4780862124013585
1,701,106.66240902321395,37.671968359513585,1.0,33.3823934911084,35,0.45443789066846374
1,702,105.51377941959328,38.12439466119861,1.0,33.496924821613675,35,0.4491122570712064
1,703,107.0045681881797,34.897328335595994,1.0,33.4203516753278,35,0.4756033662619615
1,704,108.69376043216202,34.43415846418193,1.0,33.6031538753487,35,0.4819358569919666
1,705,105.68606177582765,37.382733061861806,1.0,33.56832381559814,35,0.4549084194281782
1,706,105.81413767411783,37.02978383582786,1.0,33.568040135011984,35,0.4577458054193704
1,707,108.04782343891134,33.03877979857815,1.0,33.6713491555764,35,0.4911770125475255
1,708,106.9076958264038,33.58312872739056,1.0,33.467002253519965,35,0.4851842013780812
1,709,108.2412270360642,30.74713999010399,1.0,33.44509926477892,35,0.5085050863951427
1,710,107.27952981230705,36.9907737079576,1.0,33.46463972837426,35,0.46054857830269486
1,711,108.38249547213435,35.25634561372851,1.0,33.33977635921618,35,0.47530407920797263
1,712,105.80738282893904,35.43569915804943,1.0,33.3476416879154,35,0.4695570270487594
1,713,107.3718730238176,32.35711180459629,1.0,33.56211030089681,35,0.4950733290278575
1,714,107.10396497845527,33.523795293821344,1.0,33.36048598690762,35,0.48596089992447816
1,715,105.6261636138438,34.74408217486487,1.0,33.39250874349899,35,0.4743756972155243
1,716,105.13478307819697,34.335348799704356,1.0,33.48982801228951,35,0.4765643215223172
1,717,108.53862355291199,35.89567215103526,1.0,33.45877723972623,35,0.4708301938395645
1,718,107.01357142667302,36.80693625326363,1.0,33.588565235779605,35,0.4614558678424855
1,719,106.036579577529,40.15922513857039,1.0,33.50604613050015,35,0.4349172905363246
1,720,107.455731594615,35.55996593993815,1.0,33.42015313208278,35,0.4714626362626567
1,721,109.32202828602395,37.810805326193886,1.0,33.59716330097431,35,0.4579699734499955
1,722,104.23889323194211,33.90005444604045,1.0,33.57287913848388,35,0.478256123705014
1,723,105.44504196514501,32.19010737004929,1.0,33.35890165624261,35,0.4930070369509169
1,724,106.3356703371571,34.81539670657975,1.0,33.525226664466004,35,0.47506372978135114
1,725,109.9417683000805,32.30455656425152,1.0,33.42849232104148,35,0.49987101055605326
1,726,108.20388047437895,35.50934633433821,1.0,33.425856220719986,35,0.4731212938728699
1,727,108.96097586069185,33.89909175098267,1.0,33.68695146613125,35,0.48636260192429415
1,728,106.12975862131066,31.531457226490826,1.0,33.512427138845176,35,0.49906646004957606
1,729,106.19069618709422,38.89205029172036,1.0,33.4782461511486,35,0.4445798557507173
1,730,108.57172057508407,34.32487657378924,1.0,33.50849512252956,35,0.48253704189457375
1,731,108.01741149640317,32.1047613941116,1.0,33.58742402628293,35,0.4980521605534093
1,732,108.7831082282962,37.15634358101458,1.0,33.42983955240466,35,0.46189954514214754
1,733,107.70849351360732,33.88277127492143,1.0,33.4469150030559,35,0.4843353820038617
1,734,108.43721558968194,37.50033206738132,1.0,33.565667145814636,35,0.45875501775020455
1,735,108.28717862735766,33.8332113306439,1.0,33.348361070950965,35,0.4856955154061861
1,736,109.24665108362738,34.19820461947441,1.0,33.59907718409093,35,0.4846341705458529
1,737,109.3205124229167,35.94966341895409,1.0,33.33948202651764,35,0.4717708576152304
1,738,105.71019200841235,36.42643876140822,1.0,33.47542331914246,35,0.4620423315032212
1,739,104.79909716698872,36.7569674746812,1.0,33.34011671268327,35,0.4580281934071767
1,740,109.70261809647727,35.02051772254134,1.0,33.394374833806566,35,0.47931741847592485
1,741,110.01158763989291,36.23723344310917,1.0,33.629766685860496,35,0.4708233797258321
1,742,106.72906547072998,36.65125721384684,1.0,33.60444578738347,35,0.4621225026954309
1,743,105.50024689018154,35.5411382771337,1.0,33.61513222997781,35,0.4682482183976003
1,744,108.4685522315108,34.834683773471404,1.0,33.35510117164616,35,0.47857901288604776
1,745,109.74625733952578,32.20941010353774,1.0,33.394894384179835,35,0.5002413395938354
1,746,111.07639178365147,36.278348313559974,1.0,33.533987256883115,35,0.47234480115493377
1,747,109.18444635815217,35.14434739828231,1.0,33.571531749017936,35,0.47751024345663884
1,748,107.88242495512145,34.21276829529858,1.0,33.42004863149014,35,0.48218622945927314
1,749,107.1303040676227,37.575532727183315,1.0,33.442107861745605,35,0.4559556581571264
1,750,108.51717693750598,32.14433273417337,1.0,33.38686523539414,35,0.49861587281831166
1,751,108.08110294417212,38.268072630729776,1.0,33.665824529058156,35,0.45245012962701425
1,752,107.03739814140678,34.91545344273107,1.0,33.45250442009465,35,0.47552524832703014
1,753,111.66313347629493,35.57503635700579,1.0,33.503129230361274,35,0.4785674192781799
1,754,111.29775260310821,34.12991177093946,1.0,33.50836446022226,35,0.48865873531578774
1,755,110.35407302533315,31.565854174953337,1.0,33.61056204534738,35,0.5060569129052587
1,756,107.29872440328631,34.60078020306844,1.0,33.40475334353676,35,0.4783073054239645
1,757,109.99252898644593,35.52948981378559,1.0,33.616826083422616,35,0.4760397945359571
1,758,109.69943961424684,36.19245089280519,1.0,33.372127928437834,35,0.47062011958132555
1,759,109.43381843630607,34.4239336031222,1.0,33.61657202577777,35,0.48328104241278136
1,760,110.67449790056567,30.41492031759116,1.0,33.328470041489524,35,0.5151426092241147
1,761,109.78305671429192,31.69667731083475,1.0,33.48954443481319,35,0.5041072304083432
1,762,109.9700213544565,38.864039247526584,1.0,33.66254372217029,35,0.45126992076826183
1,763,109.84535942505832,32.55492803245577,1.0,33.56972561082456,35,0.49784872585728374
1,764,109.43118711200316,37.57409891647841,1.0,33.542124228864125,35,0.4599127776301275
1,765,106.27458330542873,32.831826525164814,1.0,33.395158485837584,35,0.48967044788856484
1,766,109.10543161611584,34.315088180544265,1.0,33.42651987558317,35,0.48352506289878017
1,767,108.1757120617263,35.910416519199806,1.0,33.63443958210311,35,0.47009837216853484
1,768,107.12023856353996,32.99961110683825,1.0,33.5472339491257,35,0.4898765160752231
1,769,111.59272492895123,37.80443027151811,1.0,33.589024924700055,35,0.46191196466532736
1,770,111.69349301132856,34.75145671613682,1.0,33.50737938124807,35,0.484727714417871
1,771,111.16883090044341,35.50170169259934,1.0,33.47182685159865,35,0.47826348854030404
1,772,109.54282012528381,34.02478598396175,1.0,33.57666616304754,35,0.4864283506864696
1,773,111.21593768142898,35.85744057403418,1.0,33.5259353034456,35,0.47570588673366276
1,774,109.23807977090274,37.67758547969972,1.0,33.483003999891196,35,0.4588140328350565
1,775,109.55419591534667,34.23742812475357,1.0,33.35859929434586,35,0.4848707648994376
1,776,107.63979294430703,37.939425581498476,1.0,33.595390829731954,35,0.45413066092014104
1,777,109.90548695674826,33.236808383241765,1.0,33.54400263116394,35,0.49289457210407345
1,778,109.43057889263663,35.96819207870342,1.0,33.43937379508522,35,0.47182222309635546
1,779,107.41602182474831,35.3982286724861,1.0,33.61792527341281,35,0.4725940785864237
1,780,109.32320433227511,32.26283585463526,1.0,33.52438124990666,35,0.4991194756770921
1,781,109.31040565421479,34.80761940927466,1.0,33.52633988390951,35,0.48022369140279564
1,782,112.15634174996697,34.374731875700746,1.0,33.58838955762448,35,0.4883156403503819
1,783,110.8313199927701,32.63361564744631,1.0,33.56687066203053,35,0.498956249590242
1,784,109.5371681586372,35.036004868388254,1.0,33.52936744791308,35,0.47891877484479306
1,785,109.92318096470161,34.59257909221703,1.0,33.4811414946455,35,0.4828696105717281
1,786,109.6463185671563,34.13482610538557,1.0,33.69836641542345,35,0.4857897399087926
1,787,109.30562902280668,34.12284506188263,1.0,33.4266199179136,35,0.4852942471107406
1,788,108.01635920391757,34.05997948215276,1.0,33.57459718389941,35,0.4835491390414052
1,789,109.4434221835896,33.484600757507344,1.0,33.49161408336277,35,0.4902642409985101
1,790,108.58085261502123,34.47966819002997,1.0,33.54547136274632,35,0.48140466614126265
1,791,107.85452669161529,32.89217157527244,1.0,33.62334233183703,35,0.4919328145692121
1,792,110.5268327218213,39.473618982939996,1.0,33.46884215730312,35,0.44770391160247297
1,793,110.37689698989985,31.32133350906937,1.0,33.56018363421337,35,0.5079095909234453
1,794,107.13993873294788,32.95052784553108,1.0,33.52655572805098,35,0.49027434048253504
1,795,109.6659730437573,33.08851579084612,1.0,33.43586985057217,35,0.49358359464456475
1,796,111.37355207884988,38.16098682864907,1.0,33.62580989987192,35,0.4588915743546295
1,797,111.49883560834448,31.419730700045005,1.0,33.57111877956739,35,0.5091041653309204
1,798,111.47875526432786,34.891844595972216,1.0,33.456545006848835,35,0.4833181839863765
1,799,110.02836981035219,34.516788130093076,1.0,33.61035937772381,35,0.48361214788675116
1,800,108.73243200804627,34.6672046093491,1.0,33.4168580349927,35,0.48027375920056137
1,801,108.4044517589629,36.45268632522188,1.0,33.497106573711484,35,0.46646886879225813
1,802,110.57690735712553,36.391658719494174,1.0,33.45707761654439,35,0.4706476967030124
1,803,110.65892005154775,33.038086346959766,1.0,33.575131198902,35,0.49566072078199264
1,804,112.0509966674076,34.308034898987984,1.0,33.452031664446686,35,0.48862962175455316
1,805,111.79996947551314,30.171795935695712,1.0,33.575848311696106,35,0.5188761977995839
1,806,109.98165701520325,34.078186017043855,1.0,33.5594460142589,35,0.4867849950969662
1,807,108.3436911817087,32.272021144336165,1.0,33.46247508525868,35,0.49737128583117823
1,808,109.76134010448365,33.46723514807897,1.0,33.68297175914563,35,0.4909383303810979
1,809,110.59584679221578,30.44925627036661,1.0,33.425476535027656,35,0.5147530478811995
1,810,109.99687513191589,34.60974457343815,1.0,33.35909859139432,35,0.4828687003611444
1,811,109.46315883788351,30.386862608848787,1.0,33.58560991366687,35,0.5132730096948361
1,812,110.73932722245485,34.056569213583174,1.0,33.28505920592126,35,0.48824487938247674
1,813,109.63406338788408,31.286988813954896,1.0,33.64918168263306,35,0.5068902026858555
1,814,109.47790087441194,32.02071792972823,1.0,33.51017538765264,35,0.501180521809139
1,815,110.91717925145517,36.009464205090325,1.0,33.357301492519476,35,0.47406594505131316
1,816,109.87701112980619,34.85583589182724,1.0,33.405153549752264,35,0.4808379297976693
1,817,110.87615658346752,35.95840627534108,1.0,33.3365911324485,35,0.4743742628373191
1,818,110.94980603427818,36.75945426500258,1.0,33.538288295270355,35,0.46855947432536643
1,819,108.86085649836264,32.07432258572047,1.0,33.367308582900776,35,0.49972459610938014
1,820,109.87813831420188,36.59794332488175,1.0,33.550208903069596,35,0.46791921894739225
1,821,112.78666540987469,30.648988687642195,1.0,33.46951758485464,35,0.5170293998517523
1,822,108.91688073089857,35.05220066908981,1.0,33.45246358597879,35,0.4777347359598826
1,823,107.51501832654421,32.55332457080006,1.0,33.55093459668616,35,0.49386360625318654
1,824,107.92723227013623,31.659399714721363,1.0,33.56235113296281,35,0.5012005874425276
1,825,110.79366491986501,34.728939734608886,1.0,33.61458028720455,35,0.4833513261926291
1,826,110.82637591704905,35.36990305033843,1.0,33.436622166376935,35,0.4786536158116838
1,827,110.63358371686232,35.29053677329309,1.0,33.49701905373391,35,0.4789115715902836
1,828,112.66128474339276,33.869719777789584,1.0,33.43646728674686,35,0.49292723140834754
1,829,106.8607483503456,33.68391460265848,1.0,33.51629874755468,35,0.48435618079166576
1,830,111.49390081164624,34.453733171399804,1.0,33.422171031472985,35,0.4865934916382415
1,831,113.27215730270537,33.987528151034375,1.0,33.45759032694995,35,0.4931012564942099
1,832,109.26832885266244,34.44271167917196,1.0,33.458099949022895,35,0.4828579230220579
1,833,110.42029023231515,33.747998922221434,1.0,33.52933609440272,35,0.4899862311310384
1,834,109.89066212415706,35.005567649012725,1.0,33.50029549672346,35,0.4797508323049859
1,835,109.70848093088371,30.04558438689914,1.0,33.55063016057687,35,0.5162249368666383
1,836,110.59060699246544,33.01745304982723,1.0,33.48930034178541,35,0.49569658035711806
1,837,113.25122792552676,30.492307012308824,1.0,33.44202473331905,35,0.5189882766771378
1,838,113.89608001323128,33.79340403520976,1.0,33.51912828972575,35,0.4956111670744056
1,839,110.66609116243978,36.503860351707395,1.0,33.40828160566092,35,0.46996850217123803
1,840,114.05759032109671,32.25183043610607,1.0,33.556915781577935,35,0.5073215402906884
1,841,111.28336471547694,33.43450406059443,1.0,33.47145348120352,35,0.4937916699465506
1,842,113.89053654005161,34.672973429843275,1.0,33.520451940969956,35,0.4890781787674024
1,843,111.15005202551976,29.00455413646695,1.0,33.52200240049453,35,0.5264185091218089
1,844,111.51658673906921,32.075779035711626,1.0,33.660154548438555,35,0.5042689150306164
1,845,111.89821170896424,33.8290313185457,1.0,33.538158370156275,35,0.49192017803677557
1,846,116.1482805190513,27.286010548685447,1.0,33.50732189530698,35,0.5477373728506338
1,847,112.68692836226718,31.10638301385006,1.0,33.430762918013954,35,0.5134659854531469
1,848,110.37910320507281,35.241715946762575,1.0,33.58023851549305,35,0.47883717361671896
1,849,112.92349680541379,35.025993800901446,1.0,33.47297944795875,35,0.4848012704184328
1,850,110.95725119437348,33.7486364547402,1.0,33.34745198540735,35,0.490902500714691
1,851,110.79537472564819,34.74439527988636,1.0,33.480491177773864,35,0.48323963010717647
1,852,112.92290203983816,33.39020846884293,1.0,33.51914897943682,35,0.49693233803464415
1,853,111.63662838165673,34.050789814884624,1.0,33.418149430234735,35,0.4898267984502855
1,854,112.03786387176771,32.288692582318774,1.0,33.48818196948903,35,0.503583901484045
1,855,111.67097783279794,33.13162536584419,1.0,33.49285171633509,35,0.4967028585455502
1,856,112.18487468990816,31.61525922716835,1.0,33.49440921057242,35,0.5088306912850438
1,857,112.34744884615422,35.38696668836462,1.0,33.623464186971546,35,0.4811360117647669
1,858,108.83454960094187,35.88311881900441,1.0,33.36884421388153,35,0.471430871562657
1,859,112.7698590029143,35.57982560139415,1.0,33.70338024591856,35,0.4804301598127698
1,860,110.32697087025454,31.983782476644272,1.0,33.49671646798088,35,0.5029107888815642
1,861,109.66655129666088,30.872451921269825,1.0,33.55802112339525,35,0.5100204114019729
1,862,111.77238313421198,35.31394732150032,1.0,33.512783626653786,35,0.48069121725859615
1,863,112.01597150497169,33.82781440518282,1.0,33.32739764282348,35,0.49213118564058367
1,864,110.87974075314158,33.37716868304729,1.0,33.394342234501416,35,0.4935246100841426
1,865,113.19654778650197,31.43273583010971,1.0,33.44757241203622,35,0.5119196343841128
1,866,109.96673725044364,33.531327625273526,1.0,33.5993719818117,35,0.49081527547009407
1,867,111.39958437684115,30.489443880676127,1.0,33.36156788642503,35,0.5158335639132131
1,868,111.1626887976005,33.90812471215806,1.0,33.414426257295894,35,0.4900719957221962
1,869,112.00011909449098,35.37777339921242,1.0,33.51648508402783,35,0.48060845378476674
1,870,112.51829642697085,35.8620910878159,1.0,33.54728564477829,35,0.47790520720065643
1,871,110.61816057556467,33.99704810821963,1.0,33.54427208768315,35,0.4884785024616555
1,872,113.24642401618433,29.79595690075776,1.0,33.40159948862763,35,0.5241446392755371
1,873,112.28450355250204,32.93466026189204,1.0,33.34020086398087,35,0.4992160068433295
1,874,109.38208062003213,36.799363488115425,1.0,33.5539059643213,35,0.4655745106310724
1,875,109.31211283940445,30.76277681911543,1.0,33.64331239415397,35,0.5102259014617212
1,876,112.26152106060603,32.36163685417957,1.0,33.46546983846243,35,0.5034265154020878
1,877,111.97854902332047,35.287048703601954,1.0,33.3855313515516,35,0.4812443322564553
1,878,112.18486982963805,33.67426784414717,1.0,33.457011967753516,35,0.4935596857389105
1,879,112.32802631520468,37.38031264897021,1.0,33.53940625733847,35,0.4663186995042424
1,880,112.73833975926527,30.93426123354282,1.0,33.476685684322334,35,0.5148307377829823
1,881,113.85147441477245,30.40048842851835,1.0,33.64071936415148,35,0.520698810836058
1,882,110.79334264862365,34.808250871670346,1.0,33.59249707194043,35,0.48276254852422784
1,883,110.7320426106488,29.94824274345693,1.0,33.51843380662042,35,0.5187025059583966
1,884,110.88001421316892,31.92646402236493,1.0,33.30456771003706,35,0.5042844837437439
1,885,112.98337500075306,32.16870691028085,1.0,33.43077363711589,35,0.5060955413008624
1,886,114.44742106796967,34.351978946771844,1.0,33.445197767365435,35,0.4924140613917436
1,887,111.96299084264074,33.48853593605049,1.0,33.4253384018352,35,0.49455663101423253
1,888,108.88745023376052,33.15412982835372,1.0,33.51908212718649,35,0.4917616307026239
1,889,110.11401070608444,31.415138244196665,1.0,33.52114420810352,35,0.5067629679291916
1,890,111.45044491580599,34.630008038163886,1.0,33.33259251318448,35,0.4852115825297827
1,891,111.89340666875718,40.23164808545453,1.0,33.580459806206115,35,0.4444258103307528
1,892,112.1474170591179,33.54256419784583,1.0,33.501612370632635,35,0.49447224967902237
1,893,112.84787168447137,32.33934441509367,1.0,33.53576414135086,35,0.5045975625061141
1,894,112.35238050376633,29.524274058015685,1.0,33.57448263348685,35,0.524626154937587
1,895,114.4240094158151,30.825037101365687,1.0,33.42330302806598,35,0.5185320861291551
1,896,111.86597404147794,31.65257953210539,1.0,33.62589056893158,35,0.5080069188373588
1,897,111.61652306078668,30.99079951946574,1.0,33.48582064429128,35,0.5124872664545487
1,898,113.65831330778069,32.007844330946305,1.0,33.651254722656695,35,0.508446264073246
1,899,110.66653689511082,35.57603215361457,1.0,33.410606756471886,35,0.47685066665871656
1,900,113.58453755798,34.49433383473847,1.0,33.64382466069309,35,0.48987823965485755
1,901,113.1838297755894,31.662334567063493,1.0,33.409601597563245,35,0.5101949612383743
1,902,112.83883626512275,29.54344011066828,1.0,33.75487812866056,35,0.525318377757299
1,903,115.4724141607239,34.61473528580483,1.0,33.40481662366159,35,0.4922233560373244
1,904,112.18668883205792,31.82189145307727,1.0,33.60565867204554,35,0.5073012788986976
1,905,116.24044725578612,28.44699914879529,1.0,33.46376057763075,35,0.5392847828388574
1,906,112.84185282615786,33.30486023698607,1.0,33.571502238366655,35,0.4974263221198103
1,907,111.29447533254465,33.91137336846693,1.0,33.49594749328743,35,0.49027394237646316
1,908,113.34487937149223,26.988183190130663,1.0,33.39087696246373,35,0.5451378547316635
1,909,111.65563219952185,30.170890715734192,1.0,33.220316984268756,35,0.5186353435503639
1,910,112.17236622827974,31.57909197738457,1.0,33.75075832961929,35,0.5090774774411977
1,911,113.92554995002324,33.24902182261724,1.0,33.5073024225615,35,0.4996992198557961
1,912,114.19337313297518,30.728506830751655,1.0,33.205646992206695,35,0.5188524313177143
1,913,112.45674844961862,30.075716196052127,1.0,33.53026086064649,35,0.520715300348097
1,914,114.9011077175696,33.174338499360566,1.0,33.568958665652985,35,0.5019264030215793
1,915,115.1862616370317,30.76335525337168,1.0,33.4284919216486,35,0.5202969789104183
1,916,115.63445263484493,32.76410930109739,1.0,33.42916454620964,35,0.5062267761901036
1,917,114.30412011068857,29.43696869005082,1.0,33.498015815296,35,0.5286213033628083
1,918,115.58514306812854,28.935333961527203,1.0,33.62025942307622,35,0.5345389815566958
1,919,110.7488023580389,33.1305383151408,1.0,33.5099960119823,35,0.4951292011571601
1,920,113.1231401770573,32.105039820634424,1.0,33.64632253043425,35,0.5068074652812137
1,921,112.32949211551485,33.42491146647241,1.0,33.613121917253025,35,0.4956571377093118
1,922,113.83883879169109,30.494813998157117,1.0,33.47712152257365,35,0.5199775560860468
1,923,112.83282617120489,29.949789395040508,1.0,33.342947624080686,35,0.5222943087409359
1,924,113.4707632370754,34.24143777508182,1.0,33.47733291612037,35,0.4915587412260286
1,925,116.57326232030607,28.45408247201106,1.0,33.5526482400395,35,0.5398030940906178
1,926,113.52542030536944,33.98292141836125,1.0,33.50598934763795,35,0.4935698210194701
1,927,114.43068847578532,34.101009414964764,1.0,33.563442483169126,35,0.4942467209597019
1,928,113.49159600511365,33.16017902853215,1.0,33.58634199761497,35,0.49961381812586375
1,929,113.98356993193525,30.044384965979102,1.0,33.553085855341585,35,0.5235664852425809
1,930,113.90902502065411,29.76695232654928,1.0,33.472467144594766,35,0.5254962531122616
1,931,114.60248609895974,30.9598884540036,1.0,33.551988347499204,35,0.5178380615498464
1,932,115.70796130332076,28.7699206463372,1.0,33.72354842315289,35,0.5359764567257559
1,933,116.46109099640499,29.416612002492805,1.0,33.3510120439329,35,0.5324719288506549
1,934,114.48443012286374,32.60946858301809,1.0,33.54872874668914,35,0.505401172104061
1,935,114.9343203290534,32.59869822844831,1.0,33.68320032850557,35,0.5062527061078415
1,936,112.35370323622165,29.18085034693009,1.0,33.382541000391555,35,0.527175485659409
1,937,113.97818488637657,32.612243870600146,1.0,33.60011000918459,35,0.5045122744999992
1,938,115.55043419732539,32.14860661147961,1.0,33.613471724456666,35,0.5106476506265964
1,939,115.46895295762573,34.23977250915421,1.0,33.35231538450911,35,0.494998396321562
1,940,114.51741459919258,32.338272883735044,1.0,33.57123617144182,35,0.5074691175261102
1,941,115.55959093935193,33.29716210746876,1.0,33.47286840988389,35,0.5021448937727644
1,942,114.99615006349072,32.114155181860426,1.0,33.49395542034902,35,0.5099524549343073
1,943,116.09045938738898,33.09985821939438,1.0,33.46750452747803,35,0.5045187805830059
1,944,114.75403873543566,28.54576568686445,1.0,33.631268909143465,35,0.5360027687001094
1,945,113.81645252664345,30.85651108577817,1.0,33.48878789796006,35,0.517256569404289
1,946,114.88376188539954,31.002034463544938,1.0,33.453668646534936,35,0.5180079238504798
1,947,110.01410843622084,30.572500106129432,1.0,33.45536244866578,35,0.5128411880863787
1,948,115.01432860457757,31.92777326063345,1.0,33.465901004411094,35,0.5113659689411842
1,949,108.99738076217783,32.2887593089915,1.0,33.392046448006944,35,0.4983683557356441
1,950,111.91480488889188,31.784514154142297,1.0,33.45278659424305,35,0.5071121575560775
1,951,115.20765290141148,30.626112237557326,1.0,33.51176696247034,35,0.5213515561165397
1,952,115.2762940059002,29.488539840309752,1.0,33.54043814199825,35,0.5299062941297306
1,953,112.84635682979011,33.13437214831247,1.0,33.62040390578428,35,0.4986985021095475
1,954,113.5518469371816,31.61946563322767,1.0,33.52409788995418,35,0.5111441309351135
1,955,116.7058114829212,28.86277228320118,1.0,33.45255302704032,35,0.5369993236333467
1,956,113.953954802641,30.492624916700752,1.0,33.39889600061851,35,0.5201912393118987
1,957,118.07438046860447,27.373400644585278,1.0,33.52944868808066,35,0.5503928845805947
1,958,114.73712022023548,30.910741228694885,1.0,33.48826292192422,35,0.5184334956094627
1,959,115.3820542653219,30.42324011480281,1.0,33.49156827559858,35,0.5231553267014258
1,960,117.2253115977479,29.651066099289324,1.0,33.52625295171481,35,0.5320438538238371
1,961,115.02654067429013,33.94920037960706,1.0,33.55193890812447,35,0.49639464767767333
1,962,113.35648402896379,28.447691760915774,1.0,33.52697352241365,35,0.5343330587370649
1,963,114.72540882245856,32.152785903364666,1.0,33.48294818967553,35,0.5092015667941077
1,964,114.86658389571487,35.09341632186374,1.0,33.41986181959566,35,0.4876340115804636
1,965,112.90288752169765,32.85453580743337,1.0,33.4387215231124,35,0.5008709189390568
1,966,114.59625189298878,30.616922435804465,1.0,33.58482598251254,35,0.5203710360162426
1,967,113.89671185900383,28.391862721153345,1.0,33.457641376160325,35,0.5356737258685559
1,968,116.42653663578115,27.91587564683109,1.0,33.365395720756254,35,0.5435431344779035
1,969,115.12191781127788,29.796896610084957,1.0,33.61595746815122,35,0.5273545254913523
1,970,114.67580637627864,29.22599853217218,1.0,33.405762150776916,35,0.5308235184268972
1,971,114.97072710406613,29.140906182083732,1.0,33.5035247103807,35,0.5319604701232777
1,972,115.49468302760924,29.90737308905751,1.0,33.549116308520944,35,0.5271745260233259
1,973,116.11522129953467,30.335505814228625,1.0,33.50032183755378,35,0.5250635550009306
1,974,113.72043165699593,31.490423895290593,1.0,33.252186210428846,35,0.5123903488343186
1,975,113.6876185510681,28.02440756107514,1.0,33.53904879966067,35,0.5380403834540328
1,976,116.9370188231038,29.1155124077339,1.0,33.632646325012544,35,0.535521400246498
1,977,114.69149469169291,30.140655834355037,1.0,33.578653222799986,35,0.5240667113852663
1,978,113.2147368611047,30.049029613153465,1.0,33.287600601800456,35,0.5222133313241212
1,979,116.03571906407466,34.09284741482684,1.0,33.71272443230027,35,0.49706021183622556
1,980,116.09505470904904,30.864493185447714,1.0,33.36741484480657,35,0.5211056378938835
1,981,113.13392711411495,27.15282037608115,1.0,33.39215805403555,35,0.5435549679734328
1,982,115.8042225731954,31.19636272317353,1.0,33.57818775935373,35,0.518145432834271
1,983,116.59337463864256,31.43132744548796,1.0,33.545284145089234,35,0.5177563332279755
1,984,116.08157967755939,30.069743943510524,1.0,33.50803351052398,35,0.5269769220882854
1,985,116.49797222564209,27.873206651181597,1.0,33.44305937578036,35,0.5439821231983744
1,986,113.47359635286388,33.796109390626924,1.0,33.63308567282298,35,0.49486645638181176
1,987,116.10656023249429,28.120232172837483,1.0,33.49606741498184,35,0.5414786635681091
1,988,115.18607036079433,31.561544412831864,1.0,33.343418299037545,35,0.5143767414516294
1,989,114.94581476191304,30.62010105812787,1.0,33.62322999499785,35,0.5209470330769894
1,990,117.0058334141296,31.40162109805954,1.0,33.52192849929672,35,0.5186841067666544
1,991,117.94891176601135,33.59371584833466,1.0,33.611500670728795,35,0.5040436253956697
1,992,118.45155508190052,31.28327774428207,1.0,33.55725486234558,35,0.5220415295001083
1,993,117.76221180725885,29.022671545912935,1.0,33.73916227462057,35,0.5376253455898393
1,994,115.65539872755471,32.331984550255925,1.0,33.469002972820775,35,0.509467631752701
1,995,116.37908024453951,28.837801099911758,1.0,33.50160932413212,35,0.5366241158287042
1,996,117.03023430767637,30.407116022790532,1.0,33.57198306439598,35,0.5261018799692161
1,997,116.0917669239492,27.47383278396842,1.0,33.46962077141933,35,0.546247424038826
1,998,116.13614628186731,27.973437545326494,1.0,33.58026377088303,35,0.5426181377050475
1,999,117.20562969781427,30.12277334087237,1.0,33.205258693401234,35,0.5285115961511688
1,1000,115.9110760309611,30.736173417161744,1.0,33.49272167441743,35,0.5217417827890082
1,1001,114.9360695954395,26.57521875461794,1.0,33.489700753133356,35,0.5509298945497532
1,1002,115.43829040124622,30.95457473600133,1.0,33.48607847865119,35,0.5193110471186224
1,1003,117.04086556660062,28.301142046803406,1.0,33.412307305149156,35,0.5417394387561081
1,1004,116.12448993679993,32.47937603134233,1.0,33.59061228385463,35,0.509179064514607
1,1005,116.66031496530252,29.19607114235098,1.0,33.449555517622805,35,0.5344493185621403
1,1006,117.18511886330329,27.63275546090003,1.0,33.5200274400072,35,0.5469440685974125
1,1007,115.64773780565358,30.011609115918503,1.0,33.496283636028565,35,0.526663961586927
1,1008,117.3743722454447,28.00752999784255,1.0,33.55003642078538,35,0.5444890960408262
1,1009,116.83826390518759,32.35789028286625,1.0,33.64309607989039,35,0.5113043532481224
1,1010,114.44778036963278,29.8010604150662,1.0,33.519510385521336,35,0.5261673602093767
1,1011,118.49345718677937,29.476646753813426,1.0,33.58413970263815,35,0.5355125946274633
1,1012,115.60888288436462,30.943602037862014,1.0,33.51448701718396,35,0.51968502907718
1,1013,113.90735698522222,27.73010512159941,1.0,33.44939918060735,35,0.5406000253149441
1,1014,114.85243443562055,27.14169268934297,1.0,33.48584424634401,35,0.5465850902067262
1,1015,114.91843225898252,30.516703158883274,1.0,33.471645761857715,35,0.5216669350678571
1,1016,116.55825997798631,27.480658583982382,1.0,33.55681621319195,35,0.5469969303696176
1,1017,116.09922424168063,27.459979692501086,1.0,33.51066520422692,35,0.5463629587387266
1,1018,116.0347520485391,31.313512062441777,1.0,33.4205735417438,35,0.5176719795232363
1,1019,117.49955294822371,30.670128219967882,1.0,33.47780377358868,35,0.5249561815772977
1,1020,117.10981304178905,27.092340915094177,1.0,33.34740833009239,35,0.5508229826137742
1,1021,117.10407180596643,28.341727914117325,1.0,33.48153968113496,35,0.5415468382165392
1,1022,117.27474268599303,27.752536888107358,1.0,33.500130586790426,35,0.5462094119113927
1,1023,117.61420200200335,33.09263859608116,1.0,33.680844820038594,35,0.5071858566442758
1,1024,113.55806998733384,31.332020855141216,1.0,33.63484520608445,35,0.5132866891661415
1,1025,116.20334262160331,28.658310307989453,1.0,33.39659254023536,35,0.537653914658883
1,1026,113.50968490326579,30.632389378686987,1.0,33.52017694193318,35,0.5183926379459082
1,1027,116.8640898901967,26.747627628138343,1.0,33.52193103141221,35,0.5529581434439451
1,1028,116.83305054166348,28.094707697621015,1.0,33.47695626472352,35,0.5429140498769373
1,1029,118.43829841218452,29.629726531883772,1.0,33.483331147511876,35,0.5342826431151262
1,1030,118.68145158908169,30.304461498291825,1.0,33.46460502567078,35,0.5296954107969565
1,1031,117.23416257237855,29.18508174897311,1.0,33.68727084868833,35,0.5355150894196109
1,1032,116.20945838390465,29.856027021428453,1.0,33.458381574656606,35,0.5287813291424897
1,1033,117.7177416688186,29.496672919906253,1.0,33.534093714359926,35,0.5340335561805715
1,1034,116.22812354401353,28.992845195955365,1.0,33.247096986627085,35,0.5352152825579924
1,1035,117.04791102283497,28.707708815618215,1.0,33.58235683833998,35,0.5387361496690904
1,1036,118.55920447544115,28.427470254644433,1.0,33.61842548072524,35,0.5434067655293435
1,1037,116.27334298101586,29.723875017257175,1.0,33.39479699708994,35,0.5298710327342907
1,1038,118.34851795886375,30.061631178398912,1.0,33.448811324991155,35,0.5309253549772772
1,1039,118.18610205303845,29.616718334637667,1.0,33.54515035201264,35,0.5339465523076905
1,1040,115.76781227430376,26.84280589999788,1.0,33.501946069441246,35,0.5503718966616271
1,1041,118.6908411923261,27.182144297713624,1.0,33.546636959051924,35,0.5528687270165348
1,1042,118.30784951805725,29.957763611896134,1.0,33.471275893542526,35,0.531625952234617
1,1043,117.44288883105898,32.08334660134176,1.0,33.68632653870515,35,0.5143776099397186
1,1044,116.17651481295852,29.42483092311751,1.0,33.4330259867861,35,0.5319228653880221
1,1045,116.06119097213664,28.27666317504601,1.0,33.76915747130482,35,0.5402406481369731
1,1046,116.57350613464546,29.528680910885548,1.0,33.624192391734915,35,0.5318335651792406
1,1047,118.22389169493793,26.786357154973143,1.0,33.58321152873843,35,0.5550032375594451
1,1048,116.00656224889791,31.657886313072925,1.0,33.39595223656427,35,0.5150695164394031
1,1049,118.1262683729298,29.393188289016056,1.0,33.5909682383695,35,0.5355017749437234
1,1050,115.63736670668241,27.6610855735789,1.0,33.56039384306806,35,0.5440792416239956
1,1051,117.22389712334173,28.64640906781425,1.0,33.28803895973271,35,0.5394926421436836
1,1052,117.72447163186102,27.90592753587277,1.0,33.359539969277876,35,0.5458431405605425
1,1053,121.25769521758838,31.56333995363367,1.0,33.53576279264155,35,0.5247775038777758
1,1054,115.55402651671946,28.51551982110588,1.0,33.48667002783342,35,0.5375992352350569
1,1055,119.85802184973521,29.210731492231183,1.0,33.44835217904492,35,0.5398253093281835
1,1056,117.90476362098093,30.027452913302582,1.0,33.60789491944555,35,0.5304177145358423
1,1057,118.32675787702394,27.378466792470917,1.0,33.41162207115807,35,0.5507881895215085
1,1058,117.9175218700823,29.227418932270314,1.0,33.454475905698395,35,0.5363731893668614
1,1059,118.43709022729284,29.36887113878842,1.0,33.4352970211983,35,0.5362152504368755
1,1060,117.56947234345697,25.69184235795876,1.0,33.55101692578797,35,0.5619984346785504
1,1061,120.01107527218619,29.285392977555222,1.0,33.3280541800179,35,0.5395340873219835
1,1062,117.17529328366291,28.66847587011372,1.0,33.45023281481496,35,0.5392456143150886
1,1063,119.58835185826888,28.999932584231992,1.0,33.32772347793373,35,0.5409261970341046
1,1064,116.95344931968047,28.79125942698113,1.0,33.46871245247581,35,0.5379544608045349
1,1065,117.85962223039807,29.218339745900163,1.0,33.57230490097575,35,0.5363412170061759
1,1066,116.37205617156468,31.354686451352315,1.0,33.57408964952471,35,0.5179451480831767
1,1067,118.69253558052127,26.30098517582978,1.0,33.42724016672325,35,0.5594069038449087
1,1068,120.2076889353898,27.95569532899916,1.0,33.553332195291595,35,0.5497332549660684
1,1069,117.9539657302687,29.953237257925675,1.0,33.481483657775506,35,0.5310525396008831
1,1070,117.80467145194413,29.56185173545582,1.0,33.63610849730784,35,0.5336992484761899
1,1071,116.4580745553981,29.498811106684165,1.0,33.48700371385261,35,0.5318571110167863
1,1072,117.81606101967154,34.06715443134667,1.0,33.20269526377168,35,0.500304419191788
1,1073,115.8008086104177,29.768271048233412,1.0,33.589468100871095,35,0.5287312686487518
1,1074,116.85068301992176,30.781875592510048,1.0,33.45409008007609,35,0.5230144429239227
1,1075,118.5901790691637,27.885855882294983,1.0,33.47258000478506,35,0.5474768709345132
1,1076,120.25851979661209,26.494175252205437,1.0,33.53359234722405,35,0.5606600593403296
1,1077,122.52381629184426,27.831365141532732,1.0,33.357529208692526,35,0.5546280040082876
1,1078,117.46012237239366,29.86392034268681,1.0,33.50746535748787,35,0.5308679316719502
1,1079,120.52295023496816,29.23365570965835,1.0,33.55344969948855,35,0.5407957761418096
1,1080,118.76562872060248,29.20650274119776,1.0,33.53640641894631,35,0.5379829947919246
1,1081,118.20312852988044,27.951311226405743,1.0,33.44010687489666,35,0.5463275390406145
1,1082,119.10889167758924,27.61239476237405,1.0,33.599193196352125,35,0.5503947414098699
1,1083,118.58287472551994,27.980285511413445,1.0,33.400250405075404,35,0.5467639886446276
1,1084,118.68559358841833,29.768950900330427,1.0,33.43744783676217,35,0.5336742231013102
1,1085,117.93750025576,29.981454856340836,1.0,33.486399856447285,35,0.5308150171924139
1,1086,116.48283551030173,26.267516700657545,1.0,33.529546835927185,35,0.5558650407381209
1,1087,116.29456219621687,29.784685118862896,1.0,33.4675456681644,35,0.5294564192866702
1,1088,119.61986732492184,26.93855753848754,1.0,33.62285868990016,35,0.5562688007522311
1,1089,118.25494986487143,29.157843303682107,1.0,33.529528621360114,35,0.537467967250048
1,1090,117.80586665051574,27.816068515075024,1.0,33.50756579636999,35,0.5466492048076325
1,1091,118.74275844008471,31.31157709847797,1.0,33.52601361591232,35,0.5223311157572635
1,1092,119.95239837937343,27.32385074203771,1.0,33.57329059309617,35,0.5539815652007173
1,1093,119.06054591453959,28.497223681789567,1.0,33.5240774893141,35,0.5437493302303535
1,1094,117.83591759503854,29.333186315118855,1.0,33.31904831668509,35,0.5354487790551732
1,1095,120.68943943347342,26.352082299754233,1.0,33.60895088640289,35,0.562453031930006
1,1096,121.24877825447244,27.934285889146107,1.0,33.51196752080761,35,0.5516777230900999
1,1097,119.65183498298428,27.526830230753724,1.0,33.56848528072217,35,0.5519606046088974
1,1098,120.40049526701614,27.01237303318805,1.0,33.459405647396686,35,0.5570602719363286
1,1099,120.83293999522071,27.14055399703352,1.0,33.31732834539131,35,0.5568513266405201
1,1100,120.69514897460677,30.224029196273587,1.0,33.272109038012566,35,0.5337458541993577
1,1101,119.95114876566893,26.782898530479333,1.0,33.40556322106422,35,0.5579914884632892
1,1102,119.95752057061233,29.09281576534321,1.0,33.55172942368576,35,0.5408705125935408
1,1103,119.86949086001975,28.56919000406229,1.0,33.62978909549643,35,0.544603085581621
1,1104,117.47399348817945,25.126039768449647,1.0,33.53019712252759,35,0.5660310426755606
1,1105,120.20108473528938,28.93833887685288,1.0,33.394777259062586,35,0.5424339798262119
1,1106,117.14627904331017,25.05297358048461,1.0,33.421587585635635,35,0.5660108534770991
1,1107,118.01810081731243,29.11618365633032,1.0,33.63607830986512,35,0.5373706987096819
1,1108,121.19534760171214,26.825616713738302,1.0,33.368921912945844,35,0.5598087172585131
1,1109,120.5303302440413,27.836734506512904,1.0,33.710177288151435,35,0.5511689445763659
1,1110,121.53109743452879,25.211440100747325,1.0,33.68760375258246,35,0.5723564198629216
1,1111,118.92248842446907,28.024764647209633,1.0,33.713472206986985,35,0.5470166083672341
1,1112,117.63162673808485,29.613900835941237,1.0,33.538070148748446,35,0.5330164101240841
1,1113,119.02934420439449,26.12606914395476,1.0,33.46584751824015,35,0.5612818948889127
1,1114,119.57304694586087,26.505665827711976,1.0,33.535634626615156,35,0.5593991112376886
1,1115,119.56848307451,28.609242047134977,1.0,33.590858495105195,35,0.5437897426429108
1,1116,121.18052071813504,28.639236647293878,1.0,33.43492240942097,35,0.5463322569597522
1,1117,118.96809436249482,22.791641403182986,1.0,33.38987967621738,35,0.5859072048882548
1,1118,120.06805170770438,31.670812727565547,1.0,33.471606350596936,35,0.521939931154127
1,1119,118.08705927584809,28.677106967096663,1.0,33.422769222246764,35,0.5407454655727353
1,1120,120.27547591706572,28.993837324905922,1.0,33.62408864786504,35,0.5421499619912543
1,1121,119.63466282527845,27.292919106675964,1.0,33.43835704862707,35,0.5536659935702162
1,1122,118.53527999257322,23.84929298289551,1.0,33.509564146659734,35,0.5773205818949723
1,1123,119.33625595673772,28.88944412250048,1.0,33.59830405206078,35,0.5413132579478084
1,1124,119.44373638022716,26.389623943538226,1.0,33.62798423103458,35,0.5600379620621095
1,1125,119.34476730599435,28.587863388366678,1.0,33.52085592818547,35,0.5435645828683852
1,1126,122.43701186340152,27.042397859474544,1.0,33.53842962366132,35,0.5603306303620571
1,1127,119.66233099653819,27.936078758232757,1.0,33.39830093724965,35,0.5489433442021842
1,1128,119.47415583473399,25.89000723718151,1.0,33.60230566469239,35,0.5637956322611712
1,1129,116.72382356358479,29.148777885357863,1.0,33.62635232422973,35,0.5349090075118813
1,1130,118.5586889720308,25.023241921084654,1.0,33.31296469275809,35,0.5686539356440197
1,1131,119.53538986331547,31.871138850678378,1.0,33.676294582053565,35,0.5195405533677864
1,1132,118.93122098573504,31.835897269974023,1.0,33.42993405331297,35,0.518765655423173
1,1133,122.0625613900667,30.60539917093302,1.0,33.55946308881353,35,0.5332627493139004
1,1134,119.77259333690567,29.87095797154902,1.0,33.50775617248159,35,0.5347820968878969
1,1135,121.98266637397738,27.130903283532717,1.0,33.49396241538894,35,0.5588949189089293
1,1136,120.17255695107555,29.613093411494418,1.0,33.47934820217231,35,0.5373806139209135
1,1137,120.16584175463237,27.067647003447743,1.0,33.400743666797645,35,0.556247844074466
1,1138,120.00680532843126,24.132964915509383,1.0,33.552382801064795,35,0.5777406465789061
1,1139,120.1756943774322,30.226402828061374,1.0,33.47139553312443,35,0.5328372787884137
1,1140,122.77819250457478,29.45764892584501,1.0,33.36905776786756,35,0.543002693407089
1,1141,116.75058390987316,27.11732178468913,1.0,33.396499531155094,35,0.5500215561409583
1,1142,117.25768138334197,24.7096314853377,1.0,33.370755373630864,35,0.5687483879381139
1,1143,119.47524375341582,25.967598646842053,1.0,33.447540944969795,35,0.5632220280159087
1,1144,120.34179182290634,23.47770883022498,1.0,33.54850993084324,35,0.5831750382412868
1,1145,121.38515663714601,28.990161705235952,1.0,33.428888194940114,35,0.5440805524309814
1,1146,121.08963079704121,23.87338206627164,1.0,33.59754415567366,35,0.5815231554522936
1,1147,119.83363113067914,27.633661740293352,1.0,33.48807855205826,35,0.551480087653392
1,1148,121.96856553986264,25.352613304440624,1.0,33.471059507815866,35,0.5720597314699098
1,1149,122.0152931047291,24.166593110001045,1.0,33.50167654302961,35,0.5809362048312865
1,1150,120.77608674690735,27.476710186557142,1.0,33.63951549317563,35,0.5542606505616564
1,1151,121.97398635873026,26.312401229375936,1.0,33.36286613080577,35,0.5649505944201473
1,1152,120.9689678951482,28.636378210850737,1.0,33.66563669714191,35,0.5459906006611223
1,1153,119.74777545982568,24.40478946254259,1.0,33.59601601089246,35,0.575280323082953
1,1154,121.66672525850001,25.405370709052352,1.0,33.49783435049626,35,0.5711507290963612
1,1155,120.81591968386802,22.124715583018215,1.0,33.61830256847701,35,0.5940229754142607
1,1156,120.68200977013174,22.511306635344155,1.0,33.46775271479257,35,0.59092607240903
1,1157,122.91943035828437,30.456384819957023,1.0,33.5285678375327,35,0.5358376459517106
1,1158,117.06369180718988,31.007196488199337,1.0,33.44585854924583,35,0.5217086647960469
1,1159,118.64347374476064,27.005452410447905,1.0,33.59664751638853,35,0.5540979484067732
1,1160,119.01939436043844,25.152342468186976,1.0,33.42927443947643,35,0.5684866429149279
1,1161,120.28510902864679,26.18310214901979,1.0,33.49486322109983,35,0.5630127933438672
1,1162,120.47808774535095,28.507148404972725,1.0,33.56791388183252,35,0.5461070961685647
1,1163,118.62901152834043,25.711221960355907,1.0,33.60481896414882,35,0.5636720290392051
1,1164,119.44226295153376,27.195267734083377,1.0,33.41788449582311,35,0.5540602368753248
1,1165,119.65873748221463,26.6744878990375,1.0,33.57531382351203,35,0.5582939896538169
1,1166,124.66613613811383,25.542374659834284,1.0,33.40180149188738,35,0.5752792189319073
1,1167,123.71261292162072,25.60761450801626,1.0,33.28496691743911,35,0.5731598687143014
1,1168,120.42237587347302,27.22664174337102,1.0,33.42519363527692,35,0.5555086403234112
1,1169,120.52462506453979,24.66622372722512,1.0,33.58346599760763,35,0.574673806252036
1,1170,119.37619400421755,27.50345869124703,1.0,33.49877831210222,35,0.5516611630189932
1,1171,118.26780438016209,25.636842080701634,1.0,33.44650020282438,35,0.5636041362232639
1,1172,120.9846797203872,26.81473460929646,1.0,33.5055478323491,35,0.5595280877517733
1,1173,119.69322202513396,29.307925132337118,1.0,33.502239967301676,35,0.5388217902818282
1,1174,121.09272420250699,26.183615909546095,1.0,33.562189854886434,35,0.5643942082748162
1,1175,118.84969122643479,28.339608680383986,1.0,33.338829007557436,35,0.5445566504829573
1,1176,120.13703831253461,22.895934288232343,1.0,33.48976470431655,35,0.5871386766151145
1,1177,121.53294064295424,25.51927397271881,1.0,33.512427727154154,35,0.5700764776386588
1,1178,121.88931439667591,26.49537724215215,1.0,33.363462983614575,35,0.5634482911016435
1,1179,121.99620793811303,30.266661358412918,1.0,33.362091757876534,35,0.5356612477419646
1,1180,119.41926652376445,22.480095833480217,1.0,33.463529158101764,35,0.5889916896494581
1,1181,122.71202859520335,26.187580276214444,1.0,33.500852428327015,35,0.5671422443290135
1,1182,120.25968245509723,29.273377701832526,1.0,33.50120460250555,35,0.54004961291755
1,1183,122.43928687191097,24.769959189466256,1.0,33.444365151865675,35,0.5771884709612529
1,1184,121.5040419850727,25.894322379148658,1.0,33.440266540703284,35,0.5672452984812107
1,1185,119.48541875138308,26.96347797011108,1.0,33.46048236785207,35,0.5558533671938443
1,1186,121.10570344312822,26.649017107445562,1.0,33.529852176134874,35,0.5609647410182049
1,1187,122.15804561309565,29.391540950908826,1.0,33.62446210067933,35,0.5424293159048388
1,1188,122.5594480707119,27.13694762014646,1.0,33.277960311355585,35,0.5598393886956672
1,1189,121.45851815383337,28.875545791028436,1.0,33.56230021213018,35,0.5450564514040248
1,1190,123.99766833590157,25.479983285380175,1.0,33.488884833880654,35,0.5745953963605025
1,1191,123.24126615647982,24.698949177499408,1.0,33.55257222810988,35,0.5790906877456486
1,1192,121.37501882540036,25.708553613960728,1.0,33.6185543337261,35,0.5684017838631636
1,1193,122.91518271820541,23.821793813264797,1.0,33.42448739241834,35,0.5850369639438897
1,1194,124.72069022778227,27.087023392420193,1.0,33.59443046778973,35,0.5639166331165735
1,1195,124.79072690117454,25.328243774489508,1.0,33.37459571356721,35,0.5770810567212791
1,1196,120.03800017876625,24.736422200045048,1.0,33.512759923276725,35,0.5733185057301399
1,1197,120.52020033326427,27.057316819242,1.0,33.475748323066405,35,0.5569322571831695
1,1198,124.16737818010077,23.752568444051423,1.0,33.50462794680074,35,0.5876981575077115
1,1199,120.38257842374354,27.561004427711588,1.0,33.40109657151505,35,0.5529605202746927
1,1200,120.01618830006248,25.043325223017277,1.0,33.54368834560502,35,0.5710048939939968
1,1201,121.30070880395144,28.298192888188368,1.0,33.65862872655148,35,0.5490678147621779
1,1202,122.69034006421188,25.174524843540866,1.0,33.40281431291836,35,0.574618546702196
1,1203,121.93640494008336,27.203819333115845,1.0,33.518964552166324,35,0.5582747764575551
1,1204,121.14415456939162,26.27912474754581,1.0,33.585587312107904,35,0.5637740638940401
1,1205,121.13868130741324,27.387803747428972,1.0,33.47032592718345,35,0.5555419645904714
1,1206,121.11149440338095,26.099893784295254,1.0,33.636039292155665,35,0.5650473427831613
1,1207,120.8907355570116,22.533205175313512,1.0,33.457031165858126,35,0.5911216655071295
1,1208,125.6624493159141,27.857587078484265,1.0,33.48837052968012,35,0.5598169224817369
1,1209,122.71626660677833,25.644634155084187,1.0,33.40068458035734,35,0.5711763681709118
1,1210,123.6301385816071,27.379032154709627,1.0,33.51265903570698,35,0.5598803798168475
1,1211,121.59638379782162,27.160492953737716,1.0,33.5003022945499,35,0.5580129082668585
1,1212,122.08106498422093,24.213407037977316,1.0,33.563590124484485,35,0.580701813389442
1,1213,121.31966902794447,23.910409189649403,1.0,33.43637939595777,35,0.5816430999716233
1,1214,118.4424374976212,27.030710202898007,1.0,33.43180043754494,35,0.5535658012634882
1,1215,120.38298608472819,25.09350194117897,1.0,33.54624921179,35,0.5712618828724011
1,1216,119.7640719800294,27.552858558932993,1.0,33.639719049007454,35,0.5519600703872061
1,1217,119.13532433307257,25.303598114273953,1.0,33.5629010247631,35,0.5675636726161092
1,1218,120.74696153855284,27.686819554896577,1.0,33.68474122486111,35,0.552652382022086
1,1219,124.55743351907243,26.466608968418203,1.0,33.5555307471222,35,0.5682380264358654
1,1220,122.53334574844347,26.175949987428297,1.0,33.55192928558544,35,0.566922024743174
1,1221,124.56584564348175,24.831977602519448,1.0,33.56792928806699,35,0.5803759841202553
1,1222,123.2764738653513,26.02485522812303,1.0,33.64881707557792,35,0.5693172622524505
1,1223,123.86383823857274,27.925705429905417,1.0,33.62375700661172,35,0.5562267246880972
1,1224,121.36865450704313,25.41156908267336,1.0,33.391512176689126,35,0.5705935054274591
1,1225,123.535926431289,26.562348887367712,1.0,33.58005818876101,35,0.5657758608594828
1,1226,123.87307135111152,25.57272015249941,1.0,33.52653565057985,35,0.5736938878487878
1,1227,121.94502906164946,25.709208085490843,1.0,33.48059649841111,35,0.569374614085434
1,1228,123.67931055592425,28.886821513876594,1.0,33.32270708445426,35,0.5487819365560375
1,1229,123.71928163786225,27.8234600620791,1.0,33.34598390897397,35,0.5567371011674402
1,1230,122.07567106830489,25.558807630391435,1.0,33.46355327798869,35,0.5707141631236339
1,1231,121.24584735159351,25.808908175872066,1.0,33.35354084915652,35,0.5674359312018982
1,1232,121.1838075021526,23.95625899289806,1.0,33.46562431812461,35,0.5810700165689543
1,1233,123.1197583128822,24.994056907470092,1.0,33.5714341252762,35,0.5766935588756813
1,1234,123.51051480318397,25.93879557509723,1.0,33.44190436765439,35,0.5703569668194626
1,1235,121.86121125431312,27.001227179138258,1.0,33.508346260275125,35,0.5596483640078207
1,1236,123.11987801198914,26.778441793821838,1.0,33.393004804172094,35,0.5634595618617597
1,1237,123.96580555420773,23.041481888190976,1.0,33.529876728497086,35,0.5926263168969922
1,1238,124.06728607199796,27.193965461357262,1.0,33.55081353914696,35,0.5620027567088929
1,1239,125.49782018018374,25.042452641244893,1.0,33.35770657429858,35,0.5804134863028277
1,1240,125.11547124829706,23.226017288644922,1.0,33.4248113703402,35,0.593229589831532
1,1241,121.72806285086517,27.85276947486384,1.0,33.373282973259265,35,0.5531043750039107
1,1242,125.78537931430702,28.086557993475907,1.0,33.55092147968178,35,0.5583295697876536
1,1243,122.49353524316642,25.66749396468132,1.0,33.51640065605482,35,0.5706247945211901
1,1244,124.88730921868164,26.53758720381047,1.0,33.495028820576444,35,0.5682774082936867
1,1245,123.45197993907662,26.634898417488863,1.0,33.487171846185866,35,0.5650937991753603
1,1246,122.76177593231455,27.8715443056245,1.0,33.53228354354326,35,0.5547381577056179
1,1247,120.6984547103376,26.51613705086345,1.0,33.53428514920114,35,0.561251754245685
1,1248,123.18265323467547,22.384623445122863,1.0,33.45044225061864,35,0.5961547557994467
1,1249,121.13092514704158,29.039615497942254,1.0,33.436440319612956,35,0.5432777106939847
1,1250,124.95094885376416,27.131313778960084,1.0,33.494100480496314,35,0.5639830863981109
1,1251,125.80518898570887,23.96095158945447,1.0,33.481026510200024,35,0.5889618282542469
1,1252,122.36463351605497,22.90074985528518,1.0,33.70606822250493,35,0.590923742838312
1,1253,124.04295611377891,25.949626860808166,1.0,33.46161053276289,35,0.5711898805239144
1,1254,122.53191271698805,24.36347992326484,1.0,33.52896653121144,35,0.5803620677522972
1,1255,122.70727290479482,25.559990707997915,1.0,33.546592648828316,35,0.5717887150475359
1,1256,124.84174205579806,26.366813682556526,1.0,33.64005242906142,35,0.569465822944904
1,1257,123.6521926072349,23.72711622400641,1.0,33.41888154082539,35,0.5870032796397929
1,1258,126.34947206289652,22.607784014631324,1.0,33.63396478291417,35,0.5999313889136328
1,1259,123.04665128194561,25.591636935743956,1.0,33.48526044256791,35,0.5721361086501363
1,1260,125.29900449871172,23.733224289446053,1.0,33.75013452296464,35,0.5897825975680892
1,1261,123.97612011943667,25.0721915714648,1.0,33.53626022192262,35,0.5775828952646946
1,1262,125.05366701461635,22.07334712607547,1.0,33.377107087064914,35,0.6016725626050112
1,1263,123.21926351400508,24.235634551050723,1.0,33.48028413273571,35,0.58248920259939
1,1264,123.84566174367262,26.149903782079992,1.0,33.63362693573283,35,0.5693660915129622
1,1265,123.77675168105159,25.911865015293593,1.0,33.50815411544112,35,0.5710133527610828
1,1266,122.7259143277313,23.10328405825346,1.0,33.49403745924029,35,0.5900412830690135
1,1267,125.00312230187262,22.323471261363895,1.0,33.57189971638677,35,0.5997307787198065
1,1268,125.01537350836753,24.671527379503583,1.0,33.465500230933245,35,0.5823370235347103
1,1269,124.96033204235835,25.74206559403882,1.0,33.47892668242171,35,0.5743027824150729
1,1270,126.40544848087646,25.4103502803851,1.0,33.40553254900684,35,0.5792416774826361
1,1271,126.30401720185445,23.555680311277378,1.0,33.67288207809664,35,0.5928231859988147
1,1272,123.5975829652263,25.155648884973207,1.0,33.37773887207525,35,0.5763146508169176
1,1273,124.74957847765127,27.544710942551987,1.0,33.51694666597635,35,0.560571662683667
1,1274,123.28459896611268,24.930289374618056,1.0,33.54798845480819,35,0.577449237385991
1,1275,124.28503297417183,21.23370412836276,1.0,33.498634888008155,35,0.6065815569179518
1,1276,123.38037582632171,24.886400676201283,1.0,33.374613720451016,35,0.5779390225059853
1,1277,126.74010546370408,28.547913942425218,1.0,33.400123597228884,35,0.5565453935318737
1,1278,124.88554722551444,21.865218373768805,1.0,33.552251691835664,35,0.6029278260169701
1,1279,124.04295630784337,24.47944932365804,1.0,33.422012069140386,35,0.5820937094675731
1,1280,126.19042785778457,23.947329133935728,1.0,33.29279827775115,35,0.5897236250922799
1,1281,121.17407688530689,24.571765918550128,1.0,33.53869783227891,35,0.5764883118984001
1,1282,121.43884610770208,24.74850430630754,1.0,33.412750462004425,35,0.5756316341707205
1,1283,125.68375798282968,26.61994397212585,1.0,33.563121927357024,35,0.5690326675774973
1,1284,124.61070267217605,24.48956657280162,1.0,33.47983787017757,35,0.5829924743423922
1,1285,124.92566945039114,26.854519114424093,1.0,33.47501876714862,35,0.5659926230452242
1,1286,122.59040584502218,24.044688682427036,1.0,33.50522381830171,35,0.5828267663841615
1,1287,124.57514943372445,23.559726452050732,1.0,33.38615066699396,35,0.5898278150021012
1,1288,127.64526411560202,22.901634033922786,1.0,33.41745469124024,35,0.5999745474894932
1,1289,125.9062994296938,20.585825941759694,1.0,33.47400759512453,35,0.6141674625142093
1,1290,124.95455981771421,24.75156282385168,1.0,33.38556570752294,35,0.5816391187490862
1,1291,124.07141913484259,28.288000576943684,1.0,33.571381765946164,35,0.5538957431454518
1,1292,124.1681407221959,25.07647095457172,1.0,33.46926210195119,35,0.5778805111085479
1,1293,121.59620316619997,25.51349470832336,1.0,33.35505633983491,35,0.5702278487388726
1,1294,125.20646063138173,23.293937349971092,1.0,33.4440971021211,35,0.5928819142436765
1,1295,126.11822466272278,23.611333217452657,1.0,33.51012025649219,35,0.5920917542624978
1,1296,122.51657100924407,26.04928297666652,1.0,33.45539095464881,35,0.5678327006517687
1,1297,123.91787466153977,28.07738728057964,1.0,33.53998158863957,35,0.5551944332624427
1,1298,123.20380305164987,27.01589587159364,1.0,33.557403634951264,35,0.5618423908207727
1,1299,123.52197320778686,25.630489259456045,1.0,33.74017002759531,35,0.5726632279936739
1,1300,125.08022244023284,24.070301158781017,1.0,33.61506442013607,35,0.5869073520535328
1,1301,121.9033967675173,24.399437828534648,1.0,33.336362965563666,35,0.5790173461665399
